0.029833333
0.046
0.061666667
0.077166667
0.0925
0.107333333
0.122666667
0.1385
0.1535
0.169666667
0.185333333
0.200833333
0.2165
0.230833333
0.2465
0.262
0.270833333
0.277
0.291
0.304
0.316333333
0.329833333
0.346333333
0.362166667
0.376666667
0.391666667
0.406166667
0.421666667
0.438166667
0.455166667
0.471333333
0.487666667
0.503166667
0.518166667
0.533666667
0.548666667
0.564
0.580833333
0.599
0.616333333
0.632833333
0.649833333
0.6665
0.682333333
0.697833333
0.712666667
0.727666667
0.743166667
0.759
0.774833333
0.7895
0.804666667
0.82
0.8355
0.850833333
0.866
0.8795
0.892333333
0.904833333
0.918
0.931833333
0.945166667
0.9585
0.973666667
0.9885
1.019666667
1.034
1.048666667
1.064
1.080166667
1.095166667
1.101166667
1.111333333
1.126666667
1.143666667
1.161166667
1.177833333
1.193833333
1.209833333
1.226166667
1.241666667
1.255833333
1.269333333
1.282166667
1.2955
1.308333333
1.321333333
1.334833333
1.349
1.3625
1.376
1.3925
1.808333333
1.814333333
1.8345
1.866833333
1.881
1.911166667
1.927666667
1.944
1.959833333
1.975833333
1.991666667
2.023666667
2.038166667
2.053166667
2.069
2.085666667
2.101666667
2.116833333
2.131833333
2.146666667
2.160666667
2.166
2.174333333
2.189
2.206166667
2.223333333
2.240166667
2.256333333
2.272166667
2.287333333
2.295166667
2.299166667
2.313666667
2.326833333
2.392333333
2.402
2.409833333
2.418833333
2.427166667
2.443166667
2.459333333
2.474833333
2.490666667
2.505833333
2.522166667
2.538
2.554333333
2.5715
2.587666667
2.604666667
2.621
2.637833333
2.6545
2.670833333
2.687
2.702333333
2.7165
2.732166667
2.747833333
2.764166667
2.780833333
2.7965
2.812666667
2.8295
2.8455
2.862166667
2.877333333
2.891833333
2.906833333
2.9215
2.941666667
2.9525
2.967833333
2.982166667
2.996333333
3.01
3.0225
3.047833333
3.06
3.073
3.086666667
3.100333333
3.113666667
3.126333333
3.139333333
3.151833333
3.165333333
3.1795
3.194166667
3.208666667
3.223166667
3.2415
3.257166667
3.272833333
3.2885
3.3045
3.321833333
3.327
3.334666667
3.3495
3.364833333
3.3785
3.391333333
3.405166667
3.420166667
3.434833333
3.449333333
3.454833333
3.456666667
3.464333333
3.479166667
3.4935
3.5065
3.519166667
3.532166667
3.546333333
3.561833333
3.577666667
3.593166667
3.607833333
3.621666667
3.634666667
3.647833333
3.660666667
3.673166667
3.686333333
3.7035
3.719333333
3.735666667
3.752333333
3.768666667
3.783333333
3.798166667
3.813333333
3.828333333
3.843
3.859166667
3.876
3.885
3.891833333
3.900666667
3.908833333
3.925
3.941166667
3.957333333
3.9725
3.988333333
4.019666667
4.034833333
4.050166667
4.065666667
4.081666667
4.097666667
4.114833333
4.1325
4.15
4.166666667
4.183
4.1995
4.215
4.230666667
4.248
4.265833333
4.282833333
4.3005
4.317666667
4.3345
4.3505
4.367166667
4.384333333
4.4
4.4165
4.433166667
4.466666667
4.484833333
4.501166667
4.5175
4.532333333
4.547166667
4.560833333
4.576
4.586166667
4.589666667
4.604666667
4.621833333
4.6385
4.656166667
4.672666667
4.689333333
4.706166667
4.722166667
4.738666667
4.754833333
4.770166667
4.786333333
4.802666667
4.818666667
4.835
4.8515
4.867666667
4.883833333
4.900333333
4.916
4.932333333
4.949333333
4.966166667
4.9835
4.9995
5.033833333
5.050833333
5.066333333
5.081666667
5.097166667
5.113
5.128333333
5.144666667
5.161
5.177333333
5.193833333
5.211
5.226
5.241833333
5.257333333
5.271833333
5.2855
5.299833333
5.315333333
5.332166667
5.349333333
5.365666667
5.381
5.396
5.4105
5.415666667
5.425666667
5.440333333
5.454833333
5.4705
5.484833333
5.499166667
5.513666667
5.529333333
5.625666667
5.641666667
5.656833333
5.6705
5.683833333
5.696833333
5.715
5.731833333
5.748166667
5.7635
5.777666667
5.790666667
5.804
5.818666667
5.8325
5.8375
5.846166667
5.8605
5.875333333
5.888666667
5.9015
5.914666667
5.928666667
5.943166667
5.957333333
5.971666667
5.986166667
6.028666667
6.0435
6.0595
6.075166667
6.090666667
6.107333333
6.1255
6.1305
6.142833333
6.1595
6.174333333
6.188
6.200833333
6.214833333
6.231666667
6.248666667
6.265166667
6.282
6.298833333
6.316
6.333
6.35
6.366
6.382166667
6.398333333
6.414666667
6.43
6.446666667
6.463833333
6.481166667
6.497666667
6.514666667
6.532
6.548666667
6.566
6.579833333
6.583833333
6.597666667
6.611833333
6.626166667
6.642166667
6.662166667
6.680833333
6.698666667
6.715
6.728833333
6.741833333
6.754666667
6.768333333
6.784
6.803166667
6.821833333
6.839666667
6.857333333
6.8745
6.890333333
6.905166667
6.919166667
6.933166667
6.9485
6.9665
6.985166667
7.021666667
7.038333333
7.053666667
7.068666667
7.083166667
7.097333333
7.112166667
7.129
7.145
7.159333333
7.173833333
7.190833333
7.2075
7.223666667
7.2395
7.255333333
7.271333333
7.2865
7.302833333
7.319166667
7.336
7.352666667
7.368666667
7.384
7.400166667
7.417666667
7.435166667
7.451
7.465166667
7.48
7.4955
7.511333333
7.5265
7.542166667
7.559333333
7.577
7.594166667
7.610666667
7.626166667
7.641166667
7.655833333
7.670333333
7.685333333
7.702666667
7.721666667
7.74
7.757333333
7.773833333
7.7895
7.8045
7.819166667
7.832666667
7.846166667
7.860666667
7.878166667
7.893
7.9075
7.923333333
7.939666667
7.956166667
7.972333333
7.988333333
8.018833333
8.0345
8.050666667
8.066166667
8.081166667
8.097
8.113333333
8.130166667
8.146666667
8.1635
8.180333333
8.196666667
8.213
8.228166667
8.242833333
8.258
8.274333333
8.2915
8.308666667
8.3255
8.341666667
8.3575
8.3735
8.388333333
8.402666667
8.418333333
8.434833333
8.451166667
8.4655
8.478833333
8.491833333
8.504666667
8.519166667
8.535166667
8.551666667
8.568333333
8.5845
8.599333333
8.613666667
8.629166667
8.645666667
8.662833333
8.679666667
8.695833333
8.712
8.728333333
8.744
8.759666667
8.7755
8.792
8.808333333
8.825666667
8.843166667
8.859833333
8.876833333
8.893666667
8.9095
8.925166667
8.942
8.9595
8.976833333
8.994333333
9.028833333
9.044666667
9.061333333
9.078666667
9.095666667
9.111666667
9.128333333
9.1455
9.162166667
9.179333333
9.196833333
9.214
9.2305
9.247333333
9.264333333
9.280833333
9.297
9.313333333
9.329166667
9.343333333
9.356666667
9.3695
9.384833333
9.401166667
9.417166667
9.433166667
9.449
9.464833333
9.48
9.494
9.508166667
9.522
9.535333333
9.548666667
9.565166667
9.581833333
9.5975
9.611833333
9.626
9.64
9.653166667
9.666666667
9.682333333
9.698
9.703833333
9.712333333
9.727333333
9.742
9.756333333
9.770333333
9.783666667
9.796166667
9.809166667
9.821666667
9.833833333
9.845833333
9.8575
9.869333333
9.876333333
9.881
9.8925
9.904
9.915166667
9.926166667
9.931166667
9.937666667
9.9435
9.948
9.958666667
9.969166667
9.9795
9.989833333
9.999833333
10.02033333
10.03033333
10.08316667
10.09383333
10.105
10.11616667
10.12716667
10.138
10.15316667
10.16483333
10.17
10.19133333
10.2045
10.21266667
10.22383333
10.23516667
10.246
10.302
10.31383333
10.32583333
10.33783333
10.3495
10.38333333
10.39483333
10.40716667
10.41916667
10.43133333
10.44333333
10.4555
10.46783333
10.47966667
10.491
10.5025
10.51466667
10.527
10.53966667
10.553
10.56616667
10.57883333
10.59116667
10.60266667
10.615
10.6275
10.64
10.6525
10.66466667
10.67583333
10.682
10.6905
10.695
10.703
10.71183333
10.7155
10.7245
10.79683333
10.813
10.81466667
10.82
10.82566667
10.8365
10.8515
10.86366667
10.887
10.912
10.928
10.94233333
10.9555
10.9675
10.97283333
10.9795
10.98716667
11.01516667
11.01666667
11.02483333
11.03033333
11.039
11.044
11.05466667
11.07083333
11.08283333
11.09533333
11.10366667
11.1075
11.1195
11.131
11.14316667
11.14983333
11.1555
11.168
11.181
11.19483333
11.20916667
11.224
11.23816667
11.25266667
11.2675
11.28116667
11.296
11.312
11.32733333
11.34333333
11.35933333
11.37433333
11.38916667
11.40266667
11.41616667
11.431
11.44633333
11.46016667
11.47316667
11.48583333
11.49883333
11.5145
11.53066667
11.545
11.56
11.5755
11.58066667
11.59033333
11.60466667
11.61833333
11.63333333
11.64983333
11.66616667
11.681
11.69733333
11.71366667
11.72983333
11.74466667
11.76016667
11.77633333
11.793
11.80883333
11.82416667
11.84
11.85233333
11.85616667
11.8695
11.88433333
11.89866667
11.91166667
11.92433333
11.938
11.9535
11.96866667
11.98433333
12.01816667
12.03433333
12.0495
12.06483333
12.08083333
12.0975
12.1135
12.13
12.14616667
12.1625
12.1775
12.193
12.20916667
12.22566667
12.24133333
12.2575
12.274
12.2895
12.30483333
12.32016667
12.3355
12.34983333
12.36483333
12.38116667
12.39783333
12.413
12.429
12.44483333
12.45916667
12.47383333
12.4875
12.50033333
12.513
12.52516667
12.53766667
12.55183333
12.566
12.58066667
12.5955
12.6095
12.6235
12.63783333
12.65233333
12.66666667
12.6815
12.6975
12.71283333
12.7285
12.7445
12.75966667
12.7755
12.79183333
12.808
12.82383333
12.8405
12.85716667
12.87283333
12.88933333
12.9055
12.92133333
12.935
12.97566667
12.99216667
13.02
13.02883333
13.03316667
13.04883333
13.0655
13.08233333
13.09716667
13.11133333
13.1255
13.139
13.153
13.16783333
13.18316667
13.197
13.2115
13.22583333
13.24016667
13.25483333
13.2695
13.28433333
13.3
13.31566667
13.3305
13.34616667
13.363
13.38016667
13.39683333
13.41283333
13.4295
13.446
13.461
13.47483333
13.489
13.50316667
13.51666667
13.52983333
13.547
13.565
13.58166667
13.59916667
13.61633333
13.63216667
13.64766667
13.66266667
13.677
13.69033333
13.70483333
13.72033333
13.737
13.753
13.76983333
13.78666667
13.80233333
13.81883333
13.83533333
13.85066667
13.86616667
13.882
13.898
13.91216667
13.9255
13.9395
13.95616667
13.97216667
13.98866667
14.02133333
14.03616667
14.05133333
14.06683333
14.08183333
14.0975
14.1135
14.129
14.14366667
14.15866667
14.17333333
14.18716667
14.20283333
14.2205
14.237
14.25316667
14.2695
14.285
14.29983333
14.31483333
14.33033333
14.34516667
14.3615
14.37866667
14.39466667
14.4105
14.42483333
14.438
14.45133333
14.46683333
14.48216667
14.49966667
14.5175
14.534
14.5505
14.5665
14.5815
14.5965
14.61166667
14.627
14.642
14.65883333
14.67566667
14.69166667
14.7075
14.72333333
14.73833333
14.754
14.77066667
14.78666667
14.8015
14.81683333
14.83333333
14.84983333
14.865
14.88083333
14.8975
14.91433333
14.9305
14.94683333
14.9625
14.9765
14.99083333
15.0215
15.03683333
15.054
15.07133333
15.08766667
15.1035
15.118
15.13133333
15.14466667
15.15916667
15.1735
15.18883333
15.205
15.22083333
15.2365
15.25233333
15.268
15.28266667
15.298
15.31366667
15.3285
15.34416667
15.35966667
15.37433333
15.39
15.40666667
15.423
15.43866667
15.45466667
15.46983333
15.484
15.499
15.5145
15.53
15.547
15.5645
15.58116667
15.5975
15.6145
15.63166667
15.64683333
15.66233333
15.67633333
15.68933333
15.7025
15.719
15.73366667
15.74983333
15.76666667
15.78333333
15.79933333
15.81566667
15.83166667
15.84683333
15.86066667
15.8745
15.88816667
15.90133333
15.91433333
15.92966667
15.94683333
15.9635
15.98083333
15.99816667
16.041
16.05683333
16.07016667
16.08266667
16.09583333
16.10966667
16.12283333
16.13566667
16.14883333
16.1625
16.17366667
16.177
16.183
16.192
16.195
16.20716667
16.2255
16.23383333
16.243
16.24666667
16.259
16.27083333
16.28216667
16.29316667
16.304
16.315
16.32616667
16.33933333
16.34516667
16.35116667
16.3675
16.37516667
16.38283333
16.39733333
16.41116667
16.425
16.438
16.453
16.46916667
16.4845
16.50066667
16.51683333
16.53216667
16.54783333
16.562
16.57666667
16.59183333
16.607
16.62283333
16.63933333
16.656
16.6725
16.69
16.70716667
16.723
16.73916667
16.75516667
16.77033333
16.78516667
16.79966667
16.813
16.82533333
16.83833333
16.85833333
16.87433333
16.8885
16.90183333
16.9165
16.94116667
16.956
16.96966667
16.98266667
16.99616667
17.02483333
17.04
17.0555
17.0715
17.08766667
17.10383333
17.12016667
17.13633333
17.1515
17.16783333
17.1845
17.201
17.21566667
17.23166667
17.24916667
17.2675
17.2855
17.3025
17.31883333
17.33533333
17.35183333
17.36733333
17.38333333
17.3995
17.41366667
17.42716667
17.44183333
17.45666667
17.4705
17.48383333
17.49783333
17.51366667
17.52883333
17.54483333
17.56133333
17.57783333
17.59366667
17.60966667
17.62583333
17.64116667
17.65566667
17.67133333
17.688
17.70433333
17.72066667
17.7375
17.75333333
17.7675
17.78083333
17.7945
17.8085
17.82233333
17.8355
17.8485
17.85183333
17.861
17.87366667
17.8875
17.90516667
17.92166667
17.93616667
17.95
17.96416667
17.97116667
17.9785
17.9925
18.0205
18.035
18.0405
18.049
18.06466667
18.06766667
18.08066667
18.0965
18.11083333
18.12566667
18.14083333
18.1545
18.168
18.18133333
18.19433333
18.20683333
18.219
18.231
18.24333333
18.2685
18.28333333
18.29833333
18.3135
18.32816667
18.342
18.35583333
18.36916667
18.38266667
18.39616667
18.40983333
18.42383333
18.4385
18.4535
18.4685
18.48266667
18.49566667
18.511
18.5205
18.52783333
18.5315
18.53633333
18.55516667
18.57133333
18.576
18.57933333
18.58216667
18.5995
18.61866667
18.63066667
18.64483333
18.65833333
18.67333333
18.68733333
18.70083333
18.7135
18.72566667
18.73733333
18.74883333
18.76016667
18.77166667
18.7835
18.79533333
18.80716667
18.81916667
18.83233333
18.84533333
18.85783333
18.87183333
18.88766667
18.89633333
18.91283333
18.91983333
18.93383333
18.94683333
18.959
18.9685
18.98333333
18.995
19.01866667
19.03066667
19.04233333
19.05366667
19.06483333
19.07633333
19.08783333
19.09933333
19.11116667
19.12283333
19.13433333
19.1465
19.15866667
19.17066667
19.183
19.19566667
19.20866667
19.2215
19.2345
19.2475
19.25983333
19.2725
19.285
19.29733333
19.30816667
19.32216667
19.335
19.34816667
19.3615
19.3765
19.38683333
19.39933333
19.41133333
19.41766667
19.423
19.43433333
19.4455
19.45666667
19.46783333
19.4795
19.49166667
19.50433333
19.51733333
19.53
19.54283333
19.55516667
19.5675
19.5805
19.59483333
19.608
19.621
19.63483333
19.648
19.66033333
19.67233333
19.68416667
19.69583333
19.70783333
19.72016667
19.7335
19.74666667
19.7595
19.77166667
19.7835
19.79533333
19.8075
19.8205
19.8355
19.85116667
19.86533333
19.8795
19.8945
19.91
19.92483333
19.93883333
19.95366667
19.96883333
19.984
19.99866667
20.03116667
20.04633333
20.0615
20.076
20.0895
20.10266667
20.116
20.12966667
20.14383333
20.159
20.17366667
20.1875
20.2015
20.216
20.23016667
20.24416667
20.2585
20.27283333
20.2865
20.30066667
20.315
20.32916667
20.343
20.357
20.37133333
20.385
20.39983333
20.41483333
20.42933333
20.44333333
20.45833333
20.47333333
20.48766667
20.5025
20.5175
20.53233333
20.54666667
20.5615
20.57583333
20.58933333
20.60316667
20.61733333
20.6315
20.64666667
20.66183333
20.67666667
20.69266667
20.70816667
20.723
20.73766667
20.75166667
20.7655
20.77966667
20.79383333
20.80766667
20.82216667
20.83633333
20.8495
20.86266667
20.87583333
20.88833333
20.9005
20.913
20.9255
20.93866667
20.952
20.96516667
20.97833333
20.99233333
21.02
21.03316667
21.04716667
21.061
21.07433333
21.08866667
21.10333333
21.11716667
21.13233333
21.148
21.16266667
21.17766667
21.19266667
21.20666667
21.22116667
21.23616667
21.25216667
21.2675
21.28383333
21.30016667
21.31533333
21.331
21.34716667
21.36266667
21.37783333
21.39366667
21.409
21.424
21.43916667
21.4545
21.469
21.48366667
21.49866667
21.51383333
21.52866667
21.544
21.56033333
21.577
21.59283333
21.60733333
21.62233333
21.63783333
21.6535
21.6685
21.68366667
21.7
21.71433333
21.72766667
21.74183333
21.75733333
21.77233333
21.788
21.80383333
21.82016667
21.83516667
21.85
21.86516667
21.88116667
21.89616667
21.91316667
21.93016667
21.946
21.96066667
21.97533333
21.99
22.01916667
22.0355
22.05216667
22.068
22.08466667
22.101
22.11616667
22.1315
22.14716667
22.1635
22.179
22.19516667
22.2115
22.2275
22.24283333
22.25883333
22.27516667
22.291
22.307
22.32316667
22.33933333
22.35516667
22.371
22.38683333
22.4025
22.41666667
22.43133333
22.445
22.458
22.47066667
22.48466667
22.50033333
22.51666667
22.5335
22.55033333
22.56616667
22.58233333
22.59816667
22.61383333
22.62883333
22.64416667
22.66033333
22.676
22.69216667
22.70866667
22.72516667
22.741
22.7555
22.76933333
22.78266667
22.8265
22.84183333
22.85666667
22.87
22.88266667
22.895
22.908
22.9215
22.936
22.949
22.963
22.977
22.9905
23.016
23.029
23.04233333
23.0555
23.07016667
23.085
23.10033333
23.1145
23.12916667
23.14416667
23.16
23.17633333
23.19233333
23.20866667
23.22516667
23.24066667
23.25716667
23.27433333
23.29066667
23.30566667
23.3215
23.33733333
23.3525
23.36816667
23.38416667
23.39883333
23.4145
23.43066667
23.44616667
23.46216667
23.4785
23.49366667
23.50916667
23.52583333
23.54183333
23.5565
23.572
23.5875
23.60433333
23.6215
23.63816667
23.654
23.67
23.686
23.702
23.71766667
23.73283333
23.74683333
23.76016667
23.77283333
23.78616667
23.80116667
23.81566667
23.83083333
23.84666667
23.86283333
23.8785
23.8945
23.9105
23.92633333
23.9415
23.95733333
23.97383333
23.99016667
24.02383333
24.04133333
24.05783333
24.0745
24.091
24.10683333
24.122
24.13766667
24.15283333
24.16633333
24.17933333
24.19333333
24.20766667
24.22266667
24.23833333
24.25533333
24.27083333
24.2865
24.30216667
24.318
24.33333333
24.34933333
24.366
24.38283333
24.39866667
24.41466667
24.43116667
24.44733333
24.46316667
24.47916667
24.49516667
24.51033333
24.52633333
24.54333333
24.55983333
24.57516667
24.5915
24.607
24.62183333
24.6375
24.65316667
24.66883333
24.68366667
24.69916667
24.71633333
24.73433333
24.75083333
24.767
24.783
24.79866667
24.81366667
24.82933333
24.84566667
24.86266667
24.87966667
24.89666667
24.913
24.92783333
24.943
24.95833333
24.97433333
24.98983333
25.02383333
25.04
25.05633333
25.073
25.08966667
25.10516667
25.12083333
25.137
25.153
25.1685
25.18483333
25.20166667
25.21766667
25.233
25.24733333
25.26033333
25.27366667
25.28783333
25.30233333
25.31833333
25.33466667
25.35
25.365
25.38066667
25.39666667
25.41133333
25.42633333
25.44183333
25.45683333
25.47183333
25.48833333
25.50533333
25.5215
25.53816667
25.55516667
25.57083333
25.58633333
25.60216667
25.61733333
25.6325
25.648
25.66333333
25.6795
25.69583333
25.712
25.7275
25.743
25.75883333
25.774
25.79016667
25.80666667
25.82166667
25.83733333
25.85283333
25.868
25.88433333
25.901
25.91616667
25.93183333
25.9475
25.96266667
25.9765
25.98983333
26.03
26.04316667
26.05566667
26.06716667
26.072
26.1025
26.13183333
26.14716667
26.17166667
26.18266667
26.21533333
26.22583333
26.236
26.29066667
26.3505
26.3675
26.384
26.4005
26.416
26.43166667
26.4465
26.46233333
26.47866667
26.49416667
26.5105
26.52716667
26.54233333
26.55683333
26.57133333
26.58516667
26.5995
26.62766667
26.645
26.66233333
26.67916667
26.696
26.71233333
26.72766667
26.74333333
26.76016667
26.77733333
26.79366667
26.8105
26.82833333
26.84566667
26.86183333
26.877
26.89183333
26.90716667
26.92283333
26.93716667
26.95033333
26.96283333
26.97533333
26.98883333
27.03533333
27.05216667
27.06783333
27.08383333
27.1005
27.11733333
27.13316667
27.14933333
27.1655
27.181
27.1965
27.21333333
27.23016667
27.2465
27.26366667
27.28116667
27.29783333
27.3145
27.331
27.34666667
27.3625
27.3785
27.3945
27.41
27.42616667
27.44183333
27.45716667
27.47283333
27.4885
27.50383333
27.51866667
27.53416667
27.54966667
27.56516667
27.582
27.6
27.61783333
27.63566667
27.65333333
27.67033333
27.6875
27.70466667
27.7215
27.7385
27.75583333
27.77266667
27.78966667
27.80733333
27.824
27.84016667
27.85683333
27.87383333
27.89
27.90466667
27.91816667
27.93266667
27.95016667
27.967
27.984
28.01883333
28.03533333
28.05183333
28.0675
28.0825
28.09783333
28.11466667
28.132
28.1495
28.16783333
28.18583333
28.20283333
28.22016667
28.23683333
28.25216667
28.26766667
28.284
28.30116667
28.31916667
28.3375
28.355
28.37216667
28.38933333
28.40616667
28.42183333
28.43816667
28.455
28.47133333
28.48833333
28.50583333
28.52316667
28.53966667
28.556
28.57233333
28.58833333
28.60416667
28.62066667
28.63616667
28.65
28.66316667
28.67683333
28.69183333
28.70083333
28.7075
28.72283333
28.737
28.7505
28.76366667
28.7765
28.78916667
28.80183333
28.81416667
28.82666667
28.8395
28.85183333
28.87533333
28.887
28.89966667
28.91266667
28.92633333
28.94266667
28.95933333
28.97466667
28.98966667
29.02016667
29.03433333
29.04933333
29.0655
29.08083333
29.09583333
29.112
29.12883333
29.14433333
29.16033333
29.17666667
29.192
29.2075
29.22333333
29.23916667
29.25533333
29.27233333
29.2885
29.30366667
29.31916667
29.33516667
29.35016667
29.36633333
29.38283333
29.39833333
29.41383333
29.42983333
29.44566667
29.4605
29.476
29.49033333
29.50366667
29.5165
29.53133333
29.548
29.56433333
29.58133333
29.59883333
29.61483333
29.63133333
29.64766667
29.66316667
29.67833333
29.69416667
29.71016667
29.72583333
29.74066667
29.75533333
29.77016667
29.785
29.7995
29.816
29.828
29.84133333
29.85466667
29.861
29.868
29.94366667
29.95616667
29.96816667
29.98016667
29.99866667
30.01483333
30.02633333
30.03083333
30.0765
30.094
30.10533333
30.10883333
30.11883333
30.14916667
30.19133333
30.22866667
30.25216667
30.2635
30.27533333
30.2875
30.3005
30.31416667
30.32733333
30.34116667
30.355
30.382
30.40116667
30.40883333
30.42183333
30.54383333
30.557
30.57033333
30.58333333
30.59633333
30.6105
30.6405
30.66816667
30.6825
30.69766667
30.7275
30.7425
30.75733333
30.786
30.80116667
30.81633333
30.8305
30.8455
30.8605
30.875
30.88966667
30.90333333
30.91616667
30.92866667
30.94133333
30.95516667
30.969
30.98433333
31.02966667
31.04483333
31.059
31.07383333
31.0895
31.10483333
31.12116667
31.138
31.15483333
31.17133333
31.18766667
31.20333333
31.2175
31.23216667
31.24733333
31.26233333
31.27883333
31.29583333
31.31216667
31.32816667
31.34483333
31.36133333
31.377
31.39316667
31.4095
31.4255
31.44233333
31.45966667
31.47633333
31.49266667
31.50916667
31.5255
31.54083333
31.55716667
31.57366667
31.59
31.606
31.62216667
31.63816667
31.653
31.66866667
31.68483333
31.70033333
31.717
31.73316667
31.748
31.76366667
31.778
31.79116667
31.80383333
31.81683333
31.8305
31.84466667
31.85933333
31.87516667
31.88933333
31.90266667
31.9165
31.9305
31.945
31.96016667
31.97533333
31.9895
32.0195
32.03516667
32.05
32.06583333
32.08233333
32.09816667
32.11416667
32.13016667
32.1455
32.1595
32.174
32.19
32.2055
32.22233333
32.24
32.25666667
32.27316667
32.289
32.30466667
32.31983333
32.33666667
32.354
32.41233333
32.42766667
32.44216667
32.4555
32.46966667
32.48633333
32.5025
32.5195
32.53716667
32.55483333
32.57133333
32.58833333
32.6055
32.62166667
32.63783333
32.65433333
32.67066667
32.686
32.70066667
32.71583333
32.733
32.75133333
32.76916667
32.7865
32.803
32.819
32.83416667
32.8515
32.86983333
32.88783333
32.90533333
32.92233333
32.93866667
32.95433333
32.97166667
32.98916667
33.02183333
33.037
33.05233333
33.0665
33.08166667
33.09733333
33.1145
33.1305
33.14666667
33.161
33.17466667
33.19016667
33.2055
33.2225
33.23983333
33.25583333
33.27183333
33.28716667
33.302
33.31633333
33.33183333
33.348
33.36383333
33.379
33.39516667
33.41133333
33.42616667
33.44166667
33.4575
33.47316667
33.488
33.505
33.522
33.538
33.5545
33.57066667
33.58566667
33.60183333
33.61816667
33.6335
33.64933333
33.666
33.68333333
33.69933333
33.7155
33.73166667
33.747
33.76266667
33.7785
33.79366667
33.81016667
33.82683333
33.84233333
33.858
33.87433333
33.89
33.90533333
33.92083333
33.93683333
33.95233333
33.96866667
33.98483333
34.033
34.04866667
34.0645
34.0805
34.0965
34.11166667
34.127
34.1425
34.157
34.17216667
34.18783333
34.20366667
34.21866667
34.23533333
34.25216667
34.2675
34.2825
34.29766667
34.31266667
34.32683333
34.342
34.358
34.37283333
34.38816667
34.40433333
34.42033333
34.43483333
34.45016667
34.4655
34.48033333
34.49533333
34.51116667
34.52616667
34.54133333
34.55633333
34.571
34.58516667
34.6
34.61516667
34.6295
34.6445
34.658
34.67066667
34.68366667
34.69766667
34.712
34.72783333
34.74383333
34.75866667
34.7735
34.78866667
34.80366667
34.81816667
34.8335
34.84916667
34.86433333
34.87883333
34.89433333
34.91066667
34.92666667
34.9415
34.9575
34.97383333
34.9895
35.02266667
35.03966667
35.05533333
35.07116667
35.08733333
35.1025
35.11683333
35.13166667
35.147
35.16183333
35.17783333
35.19433333
35.21016667
35.22616667
35.2425
35.25833333
35.27283333
35.28783333
35.30333333
35.318
35.3335
35.35133333
35.36833333
35.38316667
35.39883333
35.41566667
35.431
35.446
35.46216667
35.478
35.49266667
35.507
35.52133333
35.53566667
35.54983333
35.566
35.58266667
35.59866667
35.615
35.63116667
35.6455
35.65916667
35.67216667
35.6845
35.69766667
35.71483333
35.73
35.7465
35.76333333
35.77916667
35.79516667
35.81116667
35.82583333
35.84116667
35.857
35.8725
35.88683333
35.90166667
35.91783333
35.9335
35.94883333
35.96566667
35.98266667
35.99866667
36.0325
36.04816667
36.06383333
36.07933333
36.095
36.11033333
36.127
36.14383333
36.16033333
36.179
36.19766667
36.21566667
36.23316667
36.25066667
36.26816667
36.28466667
36.30166667
36.31883333
36.3355
36.35183333
36.36816667
36.38433333
36.399
36.41433333
36.43033333
36.44616667
36.46233333
36.4795
36.49616667
36.512
36.528
36.5435
36.55833333
36.57366667
36.58733333
36.6005
36.61316667
36.62666667
36.64033333
36.65666667
36.67266667
36.68866667
36.70616667
36.72316667
36.73916667
36.75533333
36.77166667
36.78683333
36.803
36.82016667
36.83633333
36.8525
36.86883333
36.88483333
36.90033333
36.91583333
36.93133333
36.946
36.9615
36.9775
36.99383333
37.02866667
37.04616667
37.06333333
37.081
37.09833333
37.11433333
37.12983333
37.14633333
37.16266667
37.17883333
37.19483333
37.20983333
37.225
37.2405
37.256
37.27066667
37.28583333
37.30183333
37.31816667
37.3345
37.352
37.37
37.38733333
37.4035
37.4195
37.43666667
37.454
37.47016667
37.487
37.504
37.522
37.53883333
37.556
37.57366667
37.5915
37.60866667
37.6255
37.643
37.66066667
37.67733333
37.69266667
37.70833333
37.72433333
37.73983333
37.75766667
37.7745
37.79133333
37.809
37.82616667
37.84233333
37.85916667
37.87583333
37.89116667
37.90766667
37.92416667
37.94
37.955
37.9715
37.98783333
38.01766667
38.03133333
38.04433333
38.05916667
38.0765
38.093
38.11016667
38.12666667
38.142
38.15766667
38.1735
38.18833333
38.20383333
38.2195
38.23533333
38.25033333
38.26683333
38.28383333
38.29933333
38.31516667
38.3315
38.34733333
38.3625
38.378
38.3935
38.408
38.423
38.43916667
38.456
38.47183333
38.4875
38.50366667
38.51883333
38.5335
38.54916667
38.56533333
38.58083333
38.5975
38.61433333
38.63033333
38.64683333
38.66383333
38.68
38.69483333
38.711
38.72766667
38.74366667
38.76016667
38.77783333
38.7955
38.812
38.82916667
38.846
38.862
38.877
38.892
38.90583333
38.91866667
38.9315
38.94633333
38.963
38.979
38.99566667
39.02766667
39.0425
39.05683333
39.0715
39.08683333
39.1015
39.1165
39.135
39.15266667
39.16833333
39.18316667
39.19733333
39.21166667
39.22633333
39.24333333
39.2615
39.27933333
39.29533333
39.31183333
39.3275
39.34233333
39.35816667
39.374
39.38983333
39.40483333
39.42116667
39.438
39.454
39.46983333
39.487
39.50416667
39.51966667
39.536
39.5525
39.56866667
39.58366667
39.59966667
39.61633333
39.63266667
39.6485
39.66566667
39.68266667
39.69833333
39.71433333
39.73
39.7455
39.76116667
39.77766667
39.795
39.81183333
39.8295
39.847
39.863
39.87883333
39.8945
39.91016667
39.92483333
39.94066667
39.9565
39.97166667
39.98783333
40.02083333
40.03583333
40.05083333
40.066
40.08183333
40.09683333
40.113
40.129
40.14383333
40.15833333
40.17366667
40.189
40.2035
40.21883333
40.23283333
40.24583333
40.25933333
40.27383333
40.28866667
40.3045
40.32066667
40.3365
40.3515
40.367
40.38216667
40.39666667
40.41183333
40.42733333
40.44283333
40.4585
40.47516667
40.492
40.50816667
40.52466667
40.5415
40.55783333
40.57383333
40.59016667
40.60683333
40.62283333
40.63883333
40.655
40.67133333
40.687
40.7015
40.73133333
40.749
40.76616667
40.78216667
40.796
40.81
40.8255
40.84183333
40.85783333
40.87483333
40.89216667
40.909
40.92483333
40.94133333
40.958
40.975
40.9915
41.0255
41.04233333
41.05866667
41.075
41.09116667
41.10766667
41.12366667
41.14
41.15666667
41.17166667
41.18633333
41.2015
41.21616667
41.22166667
41.22666667
41.23166667
41.23633333
41.246
41.26083333
41.27583333
41.28983333
41.30366667
41.31033333
41.317
41.32983333
41.3425
41.3545
41.36666667
41.37816667
41.38966667
41.40083333
41.412
41.4225
41.4285
41.4335
41.44433333
41.45466667
41.46483333
41.475
41.47883333
41.48483333
41.49466667
41.50533333
41.51966667
41.52916667
41.5455
41.55883333
41.56383333
41.57216667
41.5925
41.61166667
41.63033333
41.64733333
41.66166667
41.67483333
41.68733333
41.7
41.71233333
41.72516667
41.73716667
41.74916667
41.761
41.76916667
41.77216667
41.77466667
41.79866667
41.81116667
41.82216667
41.86916667
41.88283333
41.89566667
41.90766667
41.91966667
41.9315
41.94316667
41.95266667
41.9555
41.9695
41.97916667
41.991
42.0145
42.0265
42.05316667
42.06633333
42.07983333
42.09416667
42.12333333
42.13583333
42.1485
42.16066667
42.17283333
42.18466667
42.19683333
42.20966667
42.22583333
42.25033333
42.264
42.2905
42.303
42.31483333
42.3265
42.33783333
42.34933333
42.36266667
42.37266667
42.38466667
42.41016667
42.42316667
42.43583333
42.44966667
42.46316667
42.47616667
42.50366667
42.51833333
42.5315
42.54433333
42.55666667
42.56883333
42.58233333
42.59716667
42.612
42.629
42.64583333
42.66083333
42.6755
42.68983333
42.7045
42.71883333
42.73366667
42.75083333
42.7685
42.7845
42.80083333
42.8165
42.83066667
42.84416667
42.85916667
42.8755
42.89166667
42.90683333
42.923
42.93933333
42.95416667
42.9695
42.9845
42.999
43.028
43.0435
43.05816667
43.07316667
43.088
43.10283333
43.11716667
43.13333333
43.15
43.16633333
43.18116667
43.19633333
43.21133333
43.22533333
43.2405
43.25633333
43.27283333
43.28833333
43.30433333
43.32066667
43.33583333
43.3515
43.36733333
43.3835
43.39816667
43.41416667
43.43
43.44483333
43.4605
43.47716667
43.49333333
43.50883333
43.52466667
43.54033333
43.5555
43.57166667
43.58866667
43.60516667
43.62183333
43.6395
43.65666667
43.6725
43.68816667
43.70433333
43.7205
43.73566667
43.75133333
43.76766667
43.7845
43.80066667
43.81783333
43.83566667
43.8525
43.868
43.8835
43.89966667
43.91583333
43.93133333
43.94866667
43.96583333
43.982
43.99866667
44.0295
44.04316667
44.0575
44.07216667
44.08566667
44.09866667
44.11316667
44.129
44.144
44.15983333
44.175
44.189
44.20283333
44.217
44.23166667
44.24666667
44.264
44.282
44.29816667
44.31416667
44.32983333
44.34516667
44.35966667
44.37516667
44.39166667
44.40733333
44.424
44.44066667
44.45683333
44.47166667
44.48766667
44.5045
44.52
44.53583333
44.55133333
44.5665
44.58116667
44.59716667
44.61333333
44.62783333
44.6365
44.65666667
44.671
44.6855
44.69916667
44.71233333
44.72516667
44.7375
44.74916667
44.761
44.77266667
44.78433333
44.79616667
44.80816667
44.82016667
44.83266667
44.84583333
44.859
44.8715
44.88483333
44.8995
44.914
44.9295
44.94466667
44.95983333
44.97433333
44.989
45.01883333
45.033
45.04833333
45.065
45.08166667
45.0975
45.11433333
45.1315
45.147
45.16333333
45.17966667
45.1955
45.21116667
45.228
45.24483333
45.261
45.278
45.2955
45.3125
45.3285
45.3455
45.36283333
45.37933333
45.39583333
45.41266667
45.42883333
45.444
45.45983333
45.476
45.49216667
45.50766667
45.52416667
45.54166667
45.558
45.57416667
45.59016667
45.60566667
45.62083333
45.63633333
45.65166667
45.66666667
45.68216667
45.698
45.71366667
45.729
45.74366667
45.75683333
45.76933333
45.7825
45.79683333
45.81133333
45.82816667
45.84516667
45.8615
45.878
45.89433333
45.91033333
45.92516667
45.94016667
45.95516667
45.96983333
45.9865
46.02016667
46.0375
46.055
46.07216667
46.0885
46.105
46.1215
46.137
46.15316667
46.17033333
46.1875
46.20383333
46.22083333
46.23816667
46.25516667
46.27133333
46.28766667
46.30433333
46.32016667
46.33633333
46.35283333
46.36866667
46.38516667
46.40266667
46.42
46.43666667
46.45366667
46.4705
46.486
46.50133333
46.51666667
46.53133333
46.54633333
46.56216667
46.57883333
46.59466667
46.61133333
46.62783333
46.643
46.658
46.67333333
46.68866667
46.70416667
46.7235
46.74166667
46.75933333
46.77566667
46.792
46.8075
46.82266667
46.83716667
46.85283333
46.8685
46.88416667
46.899
46.91466667
46.9305
46.94583333
46.95933333
46.97283333
46.98566667
46.99816667
47.03066667
47.0475
47.06583333
47.084
47.10066667
47.11716667
47.13333333
47.14916667
47.16433333
47.181
47.199
47.21616667
47.23266667
47.24966667
47.26633333
47.28066667
47.294
47.30116667
47.30766667
47.32183333
47.3315
47.33683333
47.35366667
47.37033333
47.386
47.40133333
47.41633333
47.431
47.44583333
47.46166667
47.47816667
47.49483333
47.50966667
47.5705
47.58666667
47.60166667
47.60483333
47.61533333
47.62833333
47.64133333
47.655
47.65516667
47.669
47.68316667
47.69716667
47.71166667
47.725
47.73766667
47.74966667
47.76266667
47.77966667
47.79533333
47.80916667
47.82233333
47.83583333
47.85016667
47.86516667
47.88
47.89433333
47.909
47.92383333
47.93783333
47.9515
47.96566667
47.98066667
47.99633333
48.02883333
48.046
48.063
48.07916667
48.09533333
48.11116667
48.126
48.14083333
48.15566667
48.17066667
48.18466667
48.19966667
48.21616667
48.23166667
48.24733333
48.26283333
48.2785
48.29333333
48.30683333
48.3205
48.33383333
48.34683333
48.36016667
48.37433333
48.389
48.4035
48.4185
48.43383333
48.449
48.4635
48.47866667
48.49516667
48.51116667
48.52616667
48.54233333
48.55883333
48.57533333
48.59066667
48.60766667
48.6245
48.64016667
48.65566667
48.67183333
48.688
48.70283333
48.71933333
48.73616667
48.75233333
48.7685
48.785
48.80116667
48.817
48.83383333
48.85083333
48.86733333
48.884
48.9005
48.916
48.93183333
48.94783333
48.9635
48.97933333
48.99633333
49.03033333
49.04833333
49.06633333
49.08333333
49.10016667
49.11666667
49.13216667
49.14783333
49.16433333
49.18133333
49.198
49.21533333
49.2325
49.24833333
49.264
49.27966667
49.29583333
49.312
49.32866667
49.346
49.36316667
49.37983333
49.39666667
49.413
49.42766667
49.44116667
49.454
49.4685
49.4855
49.5015
49.51816667
49.53533333
49.552
49.56816667
49.58433333
49.60016667
49.61533333
49.63133333
49.64766667
49.66433333
49.68016667
49.69683333
49.71366667
49.72966667
49.74633333
49.76333333
49.77966667
49.79633333
49.81316667
49.82966667
49.84566667
49.86183333
49.87783333
49.8935
49.9095
49.92516667
49.93966667
49.95333333
49.9685
49.98483333
50.01816667
50.03533333
50.05133333
50.06666667
50.08183333
50.09766667
50.11283333
50.129
50.14533333
50.16233333
50.17833333
50.19516667
50.21183333
50.22783333
50.24383333
50.26066667
50.27766667
50.29433333
50.31083333
50.3275
50.34383333
50.35966667
50.376
50.39266667
50.40833333
50.42416667
50.43966667
50.45466667
50.46916667
50.48433333
50.50016667
50.51566667
50.53166667
50.54833333
50.564
50.57933333
50.59516667
50.61116667
50.62633333
50.642
50.65816667
50.67483333
50.691
50.70733333
50.72366667
50.73933333
50.75616667
50.773
50.78866667
50.805
50.82166667
50.838
50.85333333
50.86916667
50.88516667
50.90116667
50.91683333
50.93416667
50.95216667
50.96983333
50.98716667
51.02083333
51.03616667
51.05183333
51.06783333
51.084
51.09966667
51.11616667
51.13283333
51.14783333
51.162
51.17683333
51.19166667
51.20716667
51.22266667
51.23766667
51.25183333
51.2665
51.28216667
51.29866667
51.31483333
51.332
51.349
51.36516667
51.381
51.397
51.41316667
51.42866667
51.4455
51.463
51.4805
51.49716667
51.51366667
51.53
51.5455
51.5615
51.57866667
51.59633333
51.61316667
51.63083333
51.64883333
51.66583333
51.68316667
51.70016667
51.71666667
51.73333333
51.7495
51.76533333
51.78033333
51.7965
51.81483333
51.83283333
51.85116667
51.86983333
51.88733333
51.90416667
51.92016667
51.93483333
51.9485
51.963
51.97933333
51.99616667
52.02983333
52.04733333
52.06366667
52.07966667
52.0955
52.111
52.12566667
52.14083333
52.15683333
52.17316667
52.188
52.20316667
52.21783333
52.23116667
52.244
52.258
52.27333333
52.28866667
52.30533333
52.3225
52.339
52.35466667
52.37083333
52.3875
52.4035
52.4205
52.43816667
52.4555
52.472
52.489
52.50583333
52.522
52.53833333
52.5555
52.57366667
52.59083333
52.60883333
52.62666667
52.644
52.66016667
52.67633333
52.69283333
52.70816667
52.724
52.74066667
52.7575
52.77433333
52.793
52.81216667
52.83016667
52.84833333
52.8655
52.88166667
52.89766667
52.91466667
52.932
52.94866667
52.96566667
52.9825
52.9985
53.03166667
53.04683333
53.06166667
53.07516667
53.08833333
53.0925
53.10183333
53.1185
53.1345
53.15
53.16483333
53.17133333
53.177
53.193
53.19866667
53.20533333
53.2185
53.23916667
53.243
53.24566667
53.24883333
53.25516667
53.2585
53.26683333
53.27066667
53.28183333
53.28966667
53.3015
53.313
53.32433333
53.3355
53.351
53.353
53.36183333
53.373
53.38766667
53.415
53.4285
53.4395
53.441
53.4545
53.45633333
53.46566667
53.478
53.48366667
53.49016667
53.49816667
53.502
53.50833333
53.51666667
53.52966667
53.5435
53.55933333
53.566
53.57316667
53.57766667
53.58366667
53.6085
53.618
53.633
53.687
53.701
53.71483333
53.72783333
53.74066667
53.74716667
53.75333333
53.7655
53.7775
53.78266667
53.78933333
53.80116667
53.8135
53.8265
53.83966667
53.85316667
53.86866667
53.88483333
53.9005
53.91616667
53.932
53.94733333
53.96166667
53.976
53.9905
54.0205
54.0365
54.05316667
54.069
54.08416667
54.09933333
54.1135
54.127
54.141
54.15433333
54.16716667
54.1795
54.19216667
54.2055
54.21983333
54.23533333
54.25116667
54.266
54.2815
54.29716667
54.31266667
54.32733333
54.34266667
54.35833333
54.373
54.38766667
54.40216667
54.41666667
54.4305
54.445
54.4595
54.474
54.48733333
54.50033333
54.5145
54.529
54.54483333
54.56116667
54.577
54.59166667
54.606
54.62133333
54.63816667
54.65416667
54.67166667
54.6895
54.70633333
54.72383333
54.7415
54.75883333
54.77583333
54.79316667
54.81016667
54.82633333
54.8435
54.86066667
54.87683333
54.8935
54.91066667
54.92716667
54.94333333
54.96016667
54.97733333
54.99316667
55.026
55.04266667
55.05883333
55.07633333
55.09416667
55.11116667
55.12916667
55.14683333
55.16333333
55.18
55.19683333
55.21316667
55.22966667
55.24683333
55.26333333
55.2785
55.29433333
55.31066667
55.32583333
55.34116667
55.35833333
55.37516667
55.39183333
55.4095
55.4275
55.445
55.462
55.479
55.4955
55.511
55.527
55.54316667
55.55933333
55.57566667
55.59233333
55.60866667
55.6245
55.64066667
55.6575
55.67316667
55.68983333
55.70666667
55.7235
55.74016667
55.7575
55.775
55.79166667
55.80883333
55.8255
55.84083333
55.8545
55.86766667
55.8795
55.889
55.89383333
55.901
55.90416667
55.913
55.92983333
55.94566667
55.96033333
55.97466667
55.98916667
56.01766667
56.02716667
56.03116667
56.044
56.057
56.07
56.08283333
56.09516667
56.1075
56.121
56.135
56.151
56.16766667
56.18366667
56.19783333
56.21166667
56.22633333
56.24116667
56.25683333
56.27183333
56.28916667
56.3065
56.32333333
56.3405
56.3575
56.37416667
56.38916667
56.4055
56.42283333
56.43983333
56.457
56.47483333
56.492
56.50833333
56.525
56.541
56.55516667
56.56916667
56.58366667
56.60033333
56.61583333
56.63233333
56.6485
56.66483333
56.6805
56.6975
56.71483333
56.73133333
56.74866667
56.76633333
56.7835
56.8005
56.81766667
56.83433333
56.8495
56.86466667
56.88033333
56.8975
56.9145
56.93216667
56.94983333
56.96766667
56.981
56.99633333
57.02766667
57.04283333
57.057
57.07033333
57.083
57.096
57.09866667
57.1015
57.10833333
57.11966667
57.144
57.15816667
57.17433333
57.19033333
57.206
57.2115
57.22166667
57.23583333
57.249
57.26216667
57.275
57.28783333
57.30083333
57.3145
57.32783333
57.34083333
57.355
57.37183333
57.38683333
57.40183333
57.4175
57.43333333
57.44816667
57.46383333
57.48083333
57.49733333
57.51266667
57.52816667
57.54366667
57.5595
57.57366667
57.5885
57.604
57.6195
57.63383333
57.65016667
57.66733333
57.68433333
57.7005
57.7175
57.735
57.75066667
57.76716667
57.78383333
57.8
57.81516667
57.831
57.8475
57.86333333
57.88016667
57.89716667
57.91316667
57.929
57.9445
57.959
57.97316667
57.98716667
58.01333333
58.02616667
58.0385
58.0515
58.06583333
58.08033333
58.09516667
58.11066667
58.12616667
58.141
58.15616667
58.17216667
58.18766667
58.2025
58.2185
58.235
58.25
58.26516667
58.28083333
58.2975
58.313
58.32966667
58.3465
58.36316667
58.379
58.39516667
58.4125
58.4285
58.44566667
58.46333333
58.48
58.49666667
58.513
58.52866667
58.5435
58.55966667
58.57733333
58.5935
58.6115
58.63016667
58.64816667
58.66433333
58.68116667
58.69733333
58.71216667
58.727
58.7445
58.762
58.77816667
58.79483333
58.81183333
58.82716667
58.8425
58.85666667
58.87033333
58.886
58.90116667
58.915
58.9285
58.9435
58.9595
58.9745
58.9895
59.02183333
59.03683333
59.052
59.06816667
59.08416667
59.09916667
59.11383333
59.129
59.145
59.16016667
59.1775
59.19583333
59.21333333
59.23066667
59.2475
59.26383333
59.27866667
59.29466667
59.31166667
59.32866667
59.34466667
59.362
59.3795
59.39533333
59.4125
59.43016667
59.446
59.4605
59.47583333
59.49266667
59.50983333
59.52683333
59.544
59.56033333
59.57616667
59.5935
59.6115
59.62833333
59.64433333
59.66083333
59.67766667
59.694
59.71166667
59.72966667
59.74716667
59.76366667
59.78016667
59.79666667
59.81266667
59.82833333
59.84466667
59.85966667
59.87366667
59.88816667
59.90316667
59.91883333
59.934
59.94866667
59.96233333
59.977
59.99283333
60.02433333
60.04016667
60.05716667
60.0725
60.088
60.103
60.1175
60.13083333
60.14383333
60.15716667
60.17833333
60.196
60.2125
60.22683333
60.24016667
60.25416667
60.268
60.2825
60.29716667
60.31233333
60.32616667
60.34033333
60.35466667
60.36866667
60.3825
60.39716667
60.41216667
60.427
60.44083333
60.45516667
60.47083333
60.48583333
60.5
60.51433333
60.528
60.54033333
60.55283333
60.56516667
60.57933333
60.59383333
60.61016667
60.62716667
60.6435
60.659
60.675
60.69116667
60.70616667
60.72216667
60.7385
60.754
60.76933333
60.78583333
60.803
60.81933333
60.837
60.85516667
60.87266667
60.88983333
60.90716667
60.92416667
60.93983333
60.95583333
60.97316667
60.99016667
61.02516667
61.04283333
61.0595
61.07666667
61.09383333
61.10966667
61.12566667
61.14216667
61.16
61.1775
61.1955
61.2135
61.232
61.24933333
61.2665
61.28316667
61.29866667
61.31416667
61.32966667
61.34566667
61.36133333
61.3775
61.39516667
61.413
61.43
61.44733333
61.46516667
61.4825
61.4995
61.51733333
61.53516667
61.55233333
61.57016667
61.58833333
61.60616667
61.62316667
61.64016667
61.65783333
61.67533333
61.6915
61.7065
61.72133333
61.7375
61.755
61.772
61.7885
61.80483333
61.81883333
61.83183333
61.84516667
61.86033333
61.87533333
61.89183333
61.90866667
61.9255
61.94083333
61.9565
61.97233333
61.98866667
62.01916667
62.03583333
62.054
62.07133333
62.08766667
62.10466667
62.12166667
62.13833333
62.15416667
62.17116667
62.18916667
62.2065
62.22383333
62.24116667
62.2585
62.27583333
62.2925
62.30966667
62.32716667
62.34416667
62.36183333
62.37966667
62.397
62.41333333
62.43033333
62.44783333
62.465
62.48083333
62.49716667
62.51466667
62.5325
62.54966667
62.5675
62.58566667
62.60283333
62.6195
62.63616667
62.65233333
62.66783333
62.68383333
62.70116667
62.71716667
62.73383333
62.75066667
62.768
62.78416667
62.80066667
62.81683333
62.83233333
62.84816667
62.86533333
62.883
62.9
62.9165
62.93333333
62.95016667
62.96616667
62.98283333
62.99966667
63.03116667
63.04733333
63.0645
63.082
63.09883333
63.11533333
63.1325
63.1485
63.164
63.18
63.19616667
63.21183333
63.22633333
63.24116667
63.25483333
63.26766667
63.28233333
63.29816667
63.31316667
63.32916667
63.34516667
63.36116667
63.37583333
63.39033333
63.405
63.42066667
63.43533333
63.44983333
63.465
63.48133333
63.49733333
63.51283333
63.5285
63.545
63.561
63.57783333
63.5955
63.61316667
63.6305
63.64783333
63.66583333
63.68266667
63.69916667
63.71583333
63.732
63.74716667
63.76316667
63.78016667
63.79783333
63.81516667
63.83216667
63.8505
63.86816667
63.885
63.90183333
63.91866667
63.9345
63.95
63.966
63.98266667
63.99866667
64.0285
64.04283333
64.05633333
64.06983333
64.08333333
64.096
64.10866667
64.12433333
64.1395
64.15566667
64.17333333
64.191
64.20616667
64.22116667
64.23916667
64.24233333
64.24916667
64.26216667
64.27533333
64.28866667
64.303
64.31816667
64.33666667
64.35483333
64.37216667
64.38866667
64.40383333
64.41816667
64.43133333
64.44483333
64.4585
64.47283333
64.48833333
64.50283333
64.51683333
64.5305
64.54366667
64.556
64.56866667
64.582
64.59583333
64.61066667
64.62766667
64.64466667
64.661
64.67616667
64.69183333
64.70783333
64.723
64.7395
64.7555
64.771
64.78716667
64.80466667
64.82266667
64.8405
64.85883333
64.87633333
64.8925
64.909
64.92633333
64.94416667
64.96083333
64.97766667
64.99566667
65.031
65.04866667
65.0665
65.084
65.10016667
65.11666667
65.13416667
65.15266667
65.17016667
65.18666667
65.20416667
65.22216667
65.23916667
65.2565
65.2745
65.29166667
65.30766667
65.32366667
65.34033333
65.35783333
65.37483333
65.39316667
65.4125
65.4305
65.44733333
65.4645
65.48166667
65.49883333
65.51483333
65.53216667
65.54966667
65.56716667
65.5845
65.6025
65.62016667
65.6375
65.65366667
65.6695
65.68616667
65.7045
65.722
65.74
65.75833333
65.7765
65.79416667
65.81216667
65.83
65.8475
65.864
65.88083333
65.89816667
65.91516667
65.9315
65.94783333
65.9655
65.98266667
65.999
66.03366667
66.051
66.06716667
66.0835
66.09983333
66.11616667
66.13233333
66.14983333
66.1685
66.18616667
66.20216667
66.21633333
66.23183333
66.24933333
66.26683333
66.28533333
66.30533333
66.32416667
66.34216667
66.36033333
66.37833333
66.3955
66.41216667
66.4285
66.4455
66.46116667
66.47633333
66.492
66.508
66.52383333
66.54016667
66.5575
66.57533333
66.5925
66.60966667
66.62766667
66.6455
66.66216667
66.67883333
66.69633333
66.714
66.73083333
66.748
66.766
66.78433333
66.801
66.81716667
66.834
66.85116667
66.86733333
66.88383333
66.90066667
66.917
66.9335
66.95066667
66.968
66.9845
67.0175
67.03416667
67.05016667
67.0655
67.08133333
67.09766667
67.113
67.12816667
67.14466667
67.162
67.17883333
67.19633333
67.214
67.23166667
67.24883333
67.26616667
67.28333333
67.2995
67.3155
67.33216667
67.3495
67.36616667
67.38233333
67.39966667
67.41866667
67.43683333
67.45533333
67.474
67.49183333
67.50866667
67.52566667
67.543
67.56016667
67.57766667
67.5945
67.61033333
67.62583333
67.64283333
67.66133333
67.67916667
67.69733333
67.7165
67.73416667
67.7515
67.76916667
67.78683333
67.80366667
67.81966667
67.83683333
67.854
67.87066667
67.88783333
67.90516667
67.9215
67.93833333
67.9565
67.97416667
67.99133333
68.027
68.0445
68.06083333
68.07783333
68.09533333
68.11233333
68.12866667
68.14516667
68.16133333
68.17766667
68.19333333
68.21066667
68.229
68.24683333
68.26483333
68.2825
68.29966667
68.31633333
68.33316667
68.34916667
68.36566667
68.38383333
68.401
68.41916667
68.43733333
68.45466667
68.47116667
68.48783333
68.505
68.52083333
68.536
68.5515
68.5675
68.58316667
68.59883333
68.6175
68.63716667
68.65533333
68.6745
68.6935
68.7115
68.73
68.7485
68.76533333
68.78183333
68.7995
68.81716667
68.83483333
68.85333333
68.87133333
68.88816667
68.9045
68.92083333
68.937
68.9535
68.97183333
68.99033333
69.02416667
69.0415
69.059
69.076
69.09266667
69.11033333
69.12766667
69.14416667
69.1605
69.17833333
69.19683333
69.21416667
69.231
69.24883333
69.26766667
69.28583333
69.30466667
69.32383333
69.34266667
69.36116667
69.37983333
69.398
69.41483333
69.4315
69.44833333
69.46566667
69.48183333
69.49833333
69.5155
69.53233333
69.54883333
69.56616667
69.58366667
69.60183333
69.61883333
69.63666667
69.65516667
69.67366667
69.6915
69.70916667
69.727
69.74533333
69.76316667
69.7815
69.80016667
69.81816667
69.83516667
69.8525
69.87033333
69.8875
69.904
69.92033333
69.93766667
69.955
69.97283333
69.9915
70.02716667
70.04533333
70.06266667
70.08016667
70.09766667
70.1155
70.13283333
70.1505
70.16866667
70.1865
70.2035
70.22083333
70.2385
70.25583333
70.27233333
70.28933333
70.30683333
70.3245
70.34166667
70.35916667
70.37733333
70.39483333
70.41283333
70.43066667
70.44783333
70.46566667
70.48316667
70.50016667
70.51816667
70.53616667
70.554
70.5715
70.58916667
70.608
70.62583333
70.64366667
70.662
70.68033333
70.69766667
70.71533333
70.73333333
70.75133333
70.7685
70.78566667
70.80383333
70.82133333
70.83866667
70.85666667
70.87366667
70.89033333
70.90666667
70.92266667
70.93816667
70.9555
70.974
70.99183333
71.02633333
71.04416667
71.0615
71.07933333
71.09716667
71.11366667
71.1295
71.14583333
71.162
71.1775
71.194
71.21116667
71.229
71.246
71.26316667
71.28066667
71.29766667
71.31533333
71.33366667
71.35133333
71.36816667
71.38583333
71.4035
71.42
71.43583333
71.45233333
71.46983333
71.48666667
71.50316667
71.5205
71.53766667
71.554
71.57
71.58766667
71.60466667
71.62033333
71.637
71.65483333
71.67316667
71.68966667
71.70616667
71.72383333
71.74233333
71.76016667
71.77916667
71.79833333
71.81666667
71.83316667
71.85033333
71.8675
71.88483333
71.90183333
71.91866667
71.93666667
71.95433333
71.97116667
71.98833333
72.02216667
72.03833333
72.05583333
72.0735
72.09133333
72.1075
72.12466667
72.14233333
72.16
72.17733333
72.19516667
72.21316667
72.22966667
72.24633333
72.26383333
72.28166667
72.29833333
72.31516667
72.33183333
72.3495
72.36566667
72.38166667
72.3995
72.4175
72.435
72.452
72.47016667
72.48766667
72.5045
72.52166667
72.539
72.55533333
72.57183333
72.58883333
72.60483333
72.62083333
72.63566667
72.65316667
72.67133333
72.689
72.70583333
72.72416667
72.74233333
72.76016667
72.77683333
72.79383333
72.811
72.82833333
72.84483333
72.8615
72.87866667
72.89583333
72.91233333
72.92933333
72.94616667
72.962
72.9785
72.99616667
73.03
73.0465
73.0635
73.08016667
73.0985
73.11683333
73.1345
73.15133333
73.169
73.18583333
73.20216667
73.21933333
73.23733333
73.25483333
73.2715
73.28933333
73.30766667
73.32566667
73.343
73.36
73.37783333
73.3955
73.41216667
73.42866667
73.44633333
73.46433333
73.48183333
73.49983333
73.51783333
73.53466667
73.55033333
73.56666667
73.58316667
73.59933333
73.6165
73.63416667
73.65183333
73.67016667
73.68816667
73.706
73.7225
73.73916667
73.75583333
73.77266667
73.78866667
73.80316667
73.819
73.835
73.85283333
73.87183333
73.89016667
73.9085
73.9265
73.944
73.96216667
73.97983333
73.99566667
74.0275
74.04333333
74.0585
74.07316667
74.08966667
74.108
74.12633333
74.14333333
74.16083333
74.1785
74.19566667
74.213
74.23066667
74.24716667
74.264
74.28166667
74.29916667
74.31566667
74.33183333
74.34916667
74.367
74.38333333
74.39966667
74.417
74.4345
74.4515
74.46833333
74.485
74.50116667
74.517
74.53316667
74.55016667
74.56633333
74.58366667
74.60166667
74.61866667
74.63583333
74.6535
74.671
74.6875
74.70416667
74.72216667
74.739
74.75583333
74.7735
74.79233333
74.81
74.82716667
74.84466667
74.86133333
74.87733333
74.894
74.91
74.92616667
74.943
74.96183333
74.98083333
74.99983333
75.01933333
75.03816667
75.05683333
75.07516667
75.09316667
75.11016667
75.12733333
75.14516667
75.162
75.177
75.19133333
75.20616667
75.2225
75.24016667
75.26066667
75.28116667
75.30033333
75.32
75.3395
75.358
75.37566667
75.39366667
75.41116667
75.428
75.44483333
75.46233333
75.48033333
75.49833333
75.51616667
75.53416667
75.55183333
75.56866667
75.58616667
75.60466667
75.62216667
75.63983333
75.658
75.6755
75.69216667
75.70883333
75.72616667
75.74333333
75.75983333
75.77616667
75.79316667
75.81133333
75.829
75.84733333
75.8655
75.8835
75.9
75.91483333
75.92883333
75.93083333
75.94266667
75.95633333
75.97033333
75.9845
75.999
76.0275
76.048
76.066
76.08416667
76.1025
76.12033333
76.13883333
76.15683333
76.17366667
76.18816667
76.20266667
76.2195
76.238
76.256
76.275
76.295
76.31383333
76.332
76.35083333
76.3695
76.38683333
76.404
76.42116667
76.43816667
76.45466667
76.47233333
76.48966667
76.50666667
76.5235
76.54116667
76.559
76.57516667
76.59166667
76.60866667
76.62583333
76.64316667
76.66233333
76.68066667
76.6985
76.71666667
76.73483333
76.7525
76.77083333
76.78966667
76.80716667
76.82466667
76.8425
76.8605
76.87766667
76.89433333
76.91133333
76.92833333
76.94466667
76.96133333
76.98
76.998
77.03416667
77.05333333
77.07116667
77.08883333
77.10616667
77.12316667
77.13966667
77.15683333
77.17433333
77.19116667
77.20766667
77.226
77.24483333
77.262
77.27883333
77.29683333
77.31433333
77.331
77.348
77.36633333
77.38383333
77.4005
77.41733333
77.43366667
77.449
77.46366667
77.47883333
77.49566667
77.51333333
77.53033333
77.54733333
77.56533333
77.5805
77.59416667
77.60883333
77.62266667
77.63566667
77.65016667
77.66883333
77.68783333
77.70783333
77.72783333
77.7465
77.7635
77.77933333
77.79566667
77.81283333
77.8295
77.84733333
77.8655
77.88283333
77.90033333
77.9175
77.93433333
77.951
77.9685
77.986
78.01933333
78.03616667
78.0535
78.07066667
78.08666667
78.10366667
78.12133333
78.13866667
78.15566667
78.174
78.19333333
78.21166667
78.23066667
78.249
78.26683333
78.28433333
78.3015
78.31816667
78.33583333
78.3535
78.37133333
78.389
78.40683333
78.424
78.44116667
78.45783333
78.47466667
78.4915
78.50966667
78.52866667
78.54666667
78.56433333
78.583
78.6015
78.61883333
78.6365
78.6545
78.6715
78.68833333
78.7055
78.72333333
78.74033333
78.75783333
78.77516667
78.79216667
78.80883333
78.82566667
78.84283333
78.85933333
78.8755
78.89216667
78.90866667
78.925
78.94233333
78.95966667
78.976
78.99216667
79.02616667
79.0425
79.05933333
79.077
79.09433333
79.11183333
79.12916667
79.14633333
79.16266667
79.17933333
79.19683333
79.214
79.23033333
79.247
79.26366667
79.2795
79.29516667
79.31133333
79.328
79.34366667
79.35866667
79.37483333
79.391
79.40716667
79.42433333
79.44183333
79.45866667
79.47483333
79.49133333
79.50833333
79.52516667
79.5415
79.55783333
79.575
79.592
79.60816667
79.62466667
79.6415
79.65866667
79.67466667
79.69033333
79.70733333
79.72466667
79.7415
79.75866667
79.777
79.79483333
79.81266667
79.83083333
79.8485
79.86433333
79.879
79.894
79.9095
79.924
79.94
79.9565
79.97366667
79.9905
80.02283333
80.03916667
80.05466667
80.07116667
80.08983333
80.109
80.127
80.144
80.16183333
80.1795
80.196
80.213
80.22966667
80.2465
80.26266667
80.2795
80.29683333
80.314
80.33016667
80.34683333
80.36333333
80.37883333
80.39366667
80.40883333
80.425
80.44166667
80.45816667
80.47466667
80.49216667
80.50916667
80.5255
80.54266667
80.56033333
80.577
80.59283333
80.60833333
80.62533333
80.64166667
80.65816667
80.6745
80.69166667
80.70816667
80.72433333
80.74183333
80.76
80.7775
80.7945
80.81066667
80.8275
80.844
80.86133333
80.87983333
80.8975
80.9145
80.93133333
80.94783333
80.96333333
80.9785
80.99516667
81.02966667
81.0465
81.06416667
81.083
81.101
81.11883333
81.13683333
81.15416667
81.17033333
81.1865
81.2025
81.218
81.234
81.24933333
81.26466667
81.28083333
81.29833333
81.31483333
81.33033333
81.3465
81.36333333
81.3795
81.39433333
81.40833333
81.42483333
81.443
81.4605
81.478
81.49716667
81.516
81.5335
81.55083333
81.56883333
81.58683333
81.60383333
81.62016667
81.63733333
81.65533333
81.67233333
81.6885
81.7055
81.72233333
81.7385
81.75616667
81.77433333
81.79183333
81.8085
81.82533333
81.84316667
81.8605
81.877
81.89433333
81.912
81.9285
81.944
81.96016667
81.97683333
81.99483333
82.02883333
82.04683333
82.06483333
82.08166667
82.09766667
82.11466667
82.13116667
82.14716667
82.16366667
82.18033333
82.19666667
82.21333333
82.23166667
82.25
82.267
82.28433333
82.30216667
82.31866667
82.3345
82.3515
82.36916667
82.386
82.402
82.41916667
82.43666667
82.4545
82.47083333
82.486
82.50116667
82.51766667
82.53416667
82.55
82.56566667
82.58283333
82.59933333
82.61666667
82.63433333
82.65166667
82.6685
82.68716667
82.70633333
82.7245
82.74233333
82.76083333
82.77816667
82.79533333
82.81233333
82.83
82.84616667
82.86166667
82.8775
82.89466667
82.91166667
82.92783333
82.9445
82.96266667
82.98
82.9965
83.03233333
83.04983333
83.067
83.08483333
83.10283333
83.12
83.13633333
83.15383333
83.172
83.18916667
83.20533333
83.22216667
83.24066667
83.25783333
83.27483333
83.293
83.31066667
83.3275
83.344
83.36133333
83.37866667
83.395
83.41166667
83.42916667
83.44583333
83.46266667
83.47916667
83.49566667
83.512
83.52916667
83.54716667
83.565
83.58216667
83.59916667
83.6175
83.635
83.65216667
83.6695
83.68783333
83.705
83.7215
83.73816667
83.756
83.77316667
83.78933333
83.806
83.82283333
83.8405
83.857
83.874
83.89133333
83.90866667
83.9255
83.943
83.96016667
83.97666667
83.99316667
84.02716667
84.0435
84.06033333
84.0775
84.09366667
84.10966667
84.1265
84.1435
84.16033333
84.17766667
84.1955
84.2125
84.229
84.24566667
84.26283333
84.27866667
84.29433333
84.31116667
84.32833333
84.345
84.36166667
84.379
84.3965
84.41233333
84.42816667
84.44416667
84.46133333
84.47866667
84.49483333
84.5105
84.52783333
84.54633333
84.56383333
84.58066667
84.59766667
84.61483333
84.63116667
84.647
84.66366667
84.68183333
84.69883333
84.71533333
84.73216667
84.7495
84.76616667
84.7825
84.79983333
84.8165
84.83333333
84.85116667
84.869
84.88516667
84.90083333
84.91716667
84.93316667
84.94866667
84.96516667
84.9815
84.99716667
85.03116667
85.04816667
85.06433333
85.0805
85.097
85.11333333
85.13016667
85.14766667
85.16466667
85.1815
85.19866667
85.2165
85.23383333
85.24966667
85.26633333
85.2825
85.29833333
85.31533333
85.33466667
85.35466667
85.37333333
85.39166667
85.40966667
85.427
85.44316667
85.4585
85.47433333
85.49116667
85.50733333
85.5245
85.5425
85.56033333
85.57583333
85.59166667
85.608
85.62466667
85.6405
85.657
85.67366667
85.69083333
85.70666667
85.72283333
85.74
85.756
85.7715
85.78733333
85.80483333
85.8215
85.83816667
85.85583333
85.87333333
85.89
85.90716667
85.92466667
85.94066667
85.9555
85.9695
85.984
86.019
86.03866667
86.05966667
86.07933333
86.09783333
86.11666667
86.13516667
86.153
86.16916667
86.18566667
86.20283333
86.22016667
86.23666667
86.254
86.27083333
86.287
86.30333333
86.3205
86.3365
86.35316667
86.37066667
86.38833333
86.405
86.423
86.44183333
86.46016667
86.47733333
86.49466667
86.51233333
86.5295
86.54566667
86.56266667
86.58033333
86.59733333
86.6135
86.62983333
86.64766667
86.6645
86.681
86.69816667
86.71533333
86.73333333
86.751
86.76766667
86.7835
86.80116667
86.819
86.83633333
86.8545
86.87316667
86.891
86.908
86.92483333
86.941
86.9565
86.97233333
86.98883333
87.01983333
87.0365
87.05333333
87.06966667
87.08666667
87.10466667
87.123
87.1395
87.15583333
87.1725
87.18916667
87.20466667
87.22083333
87.23816667
87.255
87.2715
87.2875
87.30466667
87.32233333
87.33966667
87.35716667
87.37483333
87.39216667
87.409
87.42516667
87.44283333
87.46066667
87.47766667
87.49466667
87.51183333
87.52916667
87.545
87.56083333
87.577
87.59283333
87.60833333
87.6245
87.6425
87.65916667
87.67533333
87.692
87.7095
87.72616667
87.74183333
87.758
87.77416667
87.79116667
87.807
87.82316667
87.84033333
87.8575
87.874
87.8905
87.90816667
87.9245
87.94083333
87.95783333
87.97583333
87.99316667
88.02616667
88.0435
88.06
88.07583333
88.0935
88.11166667
88.129
88.14566667
88.16283333
88.18016667
88.19633333
88.21183333
88.22733333
88.243
88.2585
88.27733333
88.29633333
88.31416667
88.33216667
88.35116667
88.3685
88.385
88.40083333
88.416
88.4305
88.445
88.46016667
88.478
88.496
88.5145
88.53366667
88.55266667
88.56983333
88.5875
88.60516667
88.62166667
88.63733333
88.65333333
88.6695
88.686
88.702
88.71816667
88.73566667
88.7525
88.76916667
88.78616667
88.80316667
88.81933333
88.83533333
88.85116667
88.867
88.88366667
88.90116667
88.91866667
88.93683333
88.95466667
88.97333333
88.99266667
89.02933333
89.04666667
89.06433333
89.0805
89.0965
89.113
89.1295
89.1465
89.16466667
89.18233333
89.1985
89.21516667
89.2325
89.2495
89.2655
89.28216667
89.3
89.31716667
89.33316667
89.34933333
89.3675
89.38516667
89.402
89.41866667
89.43666667
89.45516667
89.47283333
89.48983333
89.50766667
89.52483333
89.5415
89.55783333
89.575
89.59216667
89.6085
89.6245
89.641
89.65766667
89.67316667
89.6895
89.70666667
89.72266667
89.7395
89.75683333
89.7735
89.7895
89.80566667
89.82283333
89.83933333
89.8555
89.87133333
89.88783333
89.90383333
89.92
89.93733333
89.95416667
89.97133333
89.989
90.0235
90.041
90.05933333
90.0765
90.09333333
90.11066667
90.12833333
90.14516667
90.16133333
90.17833333
90.19566667
90.212
90.22816667
90.24433333
90.2605
90.27633333
90.2915
90.30716667
90.32416667
90.34133333
90.35783333
90.374
90.3905
90.4065
90.42183333
90.43766667
90.4545
90.471
90.487
90.50383333
90.521
90.53766667
90.55383333
90.571
90.588
90.604
90.61883333
90.63466667
90.65116667
90.66666667
90.68266667
90.70016667
90.71766667
90.73416667
90.751
90.76883333
90.78566667
90.80183333
90.81783333
90.835
90.852
90.86783333
90.88333333
90.89966667
90.91683333
90.9335
90.95
90.9675
90.9845
91.018
91.0355
91.052
91.06783333
91.08316667
91.099
91.11483333
91.13083333
91.14716667
91.16416667
91.18016667
91.19566667
91.212
91.22933333
91.24633333
91.26283333
91.28033333
91.29783333
91.314
91.329
91.34416667
91.35983333
91.37483333
91.3895
91.40433333
91.42066667
91.438
91.45416667
91.47016667
91.48716667
91.50466667
91.52066667
91.5365
91.5525
91.56933333
91.585
91.60066667
91.6175
91.635
91.652
91.66833333
91.6855
91.70316667
91.72
91.7365
91.754
91.77233333
91.78966667
91.8065
91.82383333
91.8405
91.85616667
91.87166667
91.88883333
91.90633333
91.92266667
91.939
91.95566667
91.97316667
91.99
92.02483333
92.04316667
92.0605
92.07683333
92.09383333
92.111
92.12783333
92.14533333
92.16283333
92.17916667
92.19483333
92.211
92.22783333
92.24383333
92.261
92.27833333
92.295
92.311
92.32783333
92.3455
92.36316667
92.38
92.39683333
92.4145
92.43116667
92.44766667
92.46433333
92.48183333
92.49833333
92.51466667
92.53166667
92.54883333
92.56516667
92.5815
92.59933333
92.61666667
92.63366667
92.65133333
92.66933333
92.68583333
92.7025
92.72
92.73616667
92.75216667
92.76783333
92.7845
92.80166667
92.8185
92.83566667
92.85383333
92.87133333
92.88733333
92.9035
92.92083333
92.938
92.9545
92.9715
92.9885
93.02216667
93.038
93.05433333
93.0715
93.08783333
93.10483333
93.12266667
93.14016667
93.156
93.17083333
93.18666667
93.20316667
93.21916667
93.2365
93.25366667
93.2715
93.28816667
93.305
93.32216667
93.33883333
93.35416667
93.37033333
93.38733333
93.4045
93.421
93.43866667
93.45733333
93.475
93.492
93.51016667
93.52816667
93.545
93.56233333
93.5795
93.59516667
93.61083333
93.62683333
93.64416667
93.65983333
93.676
93.6935
93.7115
93.7285
93.7455
93.76316667
93.7805
93.79683333
93.813
93.82933333
93.846
93.8615
93.878
93.8955
93.9115
93.92766667
93.9455
93.96283333
93.97966667
93.99633333
94.0305
94.04666667
94.0625
94.07916667
94.0965
94.11266667
94.12866667
94.14533333
94.16133333
94.17783333
94.195
94.21283333
94.22983333
94.24666667
94.26366667
94.28133333
94.29833333
94.31516667
94.33183333
94.34816667
94.36366667
94.38
94.3965
94.41283333
94.42883333
94.44466667
94.46133333
94.47783333
94.4935
94.51016667
94.52783333
94.54466667
94.56116667
94.578
94.59583333
94.6125
94.62933333
94.64633333
94.6635
94.67983333
94.69583333
94.712
94.72883333
94.7445
94.76016667
94.77583333
94.79233333
94.80816667
94.82316667
94.83933333
94.85633333
94.87316667
94.8895
94.90683333
94.92366667
94.93983333
94.95566667
94.9725
94.98966667
95.0215
95.037
95.05283333
95.06883333
95.0845
95.10033333
95.117
95.13333333
95.149
95.16483333
95.18083333
95.19583333
95.20866667
95.2215
95.23516667
95.24866667
95.26183333
95.27566667
95.29183333
95.30616667
95.33033333
95.34566667
95.35
95.3585
95.37116667
95.38333333
95.39566667
95.40766667
95.4195
95.43133333
95.44283333
95.4545
95.46583333
95.47733333
95.48883333
95.5005
95.51216667
95.52483333
95.539
95.55333333
95.56866667
95.58616667
95.605
95.62383333
95.64133333
95.6575
95.67316667
95.689
95.70733333
95.72716667
95.74716667
95.76633333
95.786
95.80516667
95.8225
95.83733333
95.852
95.8685
95.88416667
95.89933333
95.915
95.93366667
95.954
95.97516667
95.995
96.032
96.05083333
96.07066667
96.09
96.109
96.12816667
96.14633333
96.16366667
96.1805
96.19833333
96.21666667
96.23533333
96.25416667
96.27283333
96.29133333
96.31033333
96.32883333
96.34716667
96.366
96.384
96.40133333
96.4195
96.4365
96.4535
96.47066667
96.4885
96.50683333
96.525
96.54316667
96.56166667
96.58033333
96.598
96.6155
96.63333333
96.65083333
96.6685
96.68583333
96.70266667
96.71933333
96.73666667
96.75433333
96.772
96.78933333
96.80666667
96.82316667
96.8405
96.85866667
96.87616667
96.8935
96.9115
96.92916667
96.94566667
96.96183333
96.97833333
96.99416667
97.02583333
97.04216667
97.05833333
97.07483333
97.092
97.10866667
97.12333333
97.1375
97.1505
97.16333333
97.17733333
97.1935
97.21016667
97.228
97.24633333
97.264
97.28316667
97.30166667
97.31883333
97.33533333
97.35283333
97.371
97.3885
97.40583333
97.42333333
97.43966667
97.45633333
97.4745
97.49266667
97.51033333
97.52816667
97.54616667
97.56383333
97.5805
97.59733333
97.6145
97.6315
97.64816667
97.665
97.68216667
97.6985
97.71516667
97.732
97.74983333
97.768
97.78616667
97.804
97.82166667
97.83866667
97.8555
97.87266667
97.8895
97.90583333
97.92283333
97.94033333
97.957
97.97333333
97.99066667
98.025
98.04216667
98.05966667
98.0775
98.09466667
98.11166667
98.12866667
98.14533333
98.16233333
98.17983333
98.1975
98.21483333
98.23166667
98.24833333
98.265
98.28133333
98.297
98.31283333
98.32933333
98.3465
98.36366667
98.38133333
98.39933333
98.41766667
98.43666667
98.455
98.47283333
98.4905
98.508
98.52483333
98.5415
98.55833333
98.5745
98.58983333
98.605
98.62016667
98.63516667
98.65
98.66583333
98.68216667
98.69716667
98.71183333
98.72666667
98.74016667
98.75333333
98.7665
98.78
98.79383333
98.81083333
98.82916667
98.84683333
98.865
98.88333333
98.90133333
98.9185
98.9355
98.95233333
98.9695
98.986
99.02
99.0375
99.055
99.07333333
99.09116667
99.10866667
99.12566667
99.14316667
99.16066667
99.17833333
99.19633333
99.21383333
99.23083333
99.24716667
99.26283333
99.27816667
99.29316667
99.30816667
99.32366667
99.3405
99.35833333
99.37566667
99.39416667
99.4135
99.43233333
99.451
99.47
99.488
99.505
99.5215
99.53783333
99.554
99.5695
99.5855
99.603
99.62083333
99.638
99.655
99.67216667
99.689
99.70633333
99.72433333
99.7425
99.76
99.7775
99.79533333
99.813
99.831
99.84866667
99.86566667
99.88233333
99.899
99.91616667
99.93283333
99.94966667
99.96733333
99.98516667
100.019
100.036
100.0528333
100.0695
100.0861667
100.1036667
100.1211667
100.1385
100.1558333
100.1735
100.1903333
100.2063333
100.2223333
100.2385
100.2545
100.271
100.289
100.307
100.3243333
100.3411667
100.3581667
100.3751667
100.3915
100.4075
100.423
100.4381667
100.4535
100.4691667
100.4841667
100.4986667
100.5138333
100.5285
100.5428333
100.558
100.5756667
100.5928333
100.6088333
100.6245
100.6408333
100.6576667
100.6736667
100.6903333
100.7081667
100.7258333
100.7438333
100.7626667
100.7806667
100.7985
100.8168333
100.8348333
100.8518333
100.8681667
100.885
100.9021667
100.9193333
100.9375
100.9555
100.9726667
100.9893333
101.0231667
101.0401667
101.058
101.0761667
101.094
101.1115
101.129
101.1461667
101.1636667
101.1816667
101.1998333
101.2171667
101.2345
101.252
101.2695
101.2863333
101.3033333
101.3203333
101.337
101.3533333
101.3696667
101.3868333
101.4038333
101.4208333
101.438
101.4548333
101.472
101.4895
101.5066667
101.5233333
101.5401667
101.557
101.5736667
101.5903333
101.6078333
101.625
101.642
101.6595
101.6766667
101.693
101.7088333
101.7248333
101.7405
101.756
101.772
101.7886667
101.8053333
101.822
101.8393333
101.8571667
101.8746667
101.8923333
101.9096667
101.9263333
101.9425
101.959
101.9758333
101.9921667
102.0255
102.0416667
102.0586667
102.0753333
102.0916667
102.1083333
102.1253333
102.142
102.1588333
102.1756667
102.192
102.2088333
102.2258333
102.2425
102.2585
102.275
102.2918333
102.3083333
102.3248333
102.3415
102.3583333
102.3743333
102.3903333
102.4066667
102.423
102.4386667
102.4546667
102.4713333
102.4881667
102.505
102.5223333
102.5396667
102.5563333
102.5725
102.5885
102.6043333
102.6203333
102.637
102.6545
102.6723333
102.69
102.7076667
102.7253333
102.7421667
102.7588333
102.7753333
102.7913333
102.8075
102.8241667
102.841
102.8575
102.8743333
102.8911667
102.9073333
102.9236667
102.9401667
102.9566667
102.973
102.9891667
103.0221667
103.0386667
103.056
103.0733333
103.09
103.1068333
103.1233333
103.1393333
103.155
103.1715
103.188
103.2041667
103.2203333
103.2368333
103.2531667
103.269
103.2845
103.3003333
103.3166667
103.3323333
103.3481667
103.3638333
103.3795
103.3955
103.4113333
103.4268333
103.442
103.4576667
103.4731667
103.489
103.5048333
103.5216667
103.538
103.5543333
103.5703333
103.586
103.6016667
103.6171667
103.6323333
103.6491667
103.6663333
103.6826667
103.699
103.7158333
103.7323333
103.7478333
103.7635
103.7793333
103.795
103.8101667
103.8266667
103.8431667
103.859
103.8751667
103.8918333
103.9081667
103.9245
103.9416667
103.9588333
103.9751667
103.9916667
104.025
104.0411667
104.0573333
104.0736667
104.09
104.1058333
104.1225
104.1395
104.1558333
104.172
104.189
104.2061667
104.2228333
104.2393333
104.2566667
104.2743333
104.2915
104.3081667
104.325
104.342
104.3588333
104.3758333
104.3926667
104.4096667
104.4265
104.4433333
104.4608333
104.478
104.4951667
104.5123333
104.5291667
104.5453333
104.5616667
104.5785
104.5951667
104.6115
104.6278333
104.6446667
104.6616667
104.6778333
104.694
104.7105
104.7275
104.7443333
104.7606667
104.7766667
104.7918333
104.8056667
104.819
104.8325
104.8468333
104.8613333
104.8756667
104.8908333
104.9061667
104.9243333
104.9438333
104.963
104.9813333
104.9998333
105.0358333
105.0535
105.0713333
105.089
105.1065
105.124
105.1413333
105.1581667
105.1753333
105.1921667
105.2096667
105.227
105.2443333
105.2618333
105.2786667
105.2958333
105.3125
105.3286667
105.3446667
105.3615
105.3788333
105.3956667
105.4125
105.4295
105.446
105.4625
105.479
105.4953333
105.5111667
105.527
105.5426667
105.558
105.5735
105.5903333
105.606
105.62
105.633
105.6456667
105.6578333
105.6705
105.6856667
105.702
105.7206667
105.7385
105.7536667
105.7676667
105.781
105.7936667
105.806
105.818
105.8296667
105.8411667
105.8526667
105.8641667
105.8755
105.8866667
105.8978333
105.9088333
105.92
105.931
105.942
105.9506667
105.9528333
105.964
105.9701667
105.975
105.9856667
105.9963333
106.0173333
106.0276667
106.038
106.0483333
106.0586667
106.0688333
106.079
106.0891667
106.0996667
106.1108333
106.1231667
106.1365
106.1505
106.1646667
106.1806667
106.1978333
106.215
106.2333333
106.2508333
106.2673333
106.2816667
106.2953333
106.3081667
106.321
106.3406667
106.3601667
106.3795
106.4003333
106.4206667
106.4393333
106.4573333
106.4756667
106.493
106.5111667
106.53
106.5481667
106.5671667
106.5861667
106.604
106.6205
106.6371667
106.6535
106.671
106.6905
106.7086667
106.7255
106.743
106.7618333
106.78
106.7973333
106.8156667
106.8338333
106.851
106.869
106.8873333
106.9051667
106.9235
106.9418333
106.9598333
106.9773333
106.9946667
107.0283333
107.0458333
107.0625
107.0795
107.097
107.114
107.1316667
107.1496667
107.1661667
107.1815
107.1965
107.2118333
107.2273333
107.2428333
107.2583333
107.2758333
107.293
107.3105
107.3295
107.3481667
107.3656667
107.3815
107.3968333
107.4115
107.425
107.4381667
107.4526667
107.4711667
107.4898333
107.509
107.5288333
107.5478333
107.5661667
107.5848333
107.6028333
107.6203333
107.6371667
107.6535
107.6696667
107.6846667
107.6995
107.7138333
107.7271667
107.7405
107.7541667
107.7711667
107.7893333
107.8081667
107.827
107.8426667
107.8576667
107.8731667
107.8881667
107.9031667
107.9196667
107.9371667
107.9545
107.9706667
107.9851667
108.0348333
108.0516667
108.0681667
108.0846667
108.1006667
108.117
108.1325
108.1495
108.1676667
108.1856667
108.2025
108.22
108.238
108.2553333
108.272
108.2896667
108.3076667
108.3251667
108.3418333
108.3578333
108.3741667
108.3905
108.4066667
108.425
108.4433333
108.4611667
108.4776667
108.4936667
108.5105
108.5283333
108.5458333
108.5645
108.584
108.6023333
108.621
108.6395
108.6571667
108.674
108.6908333
108.7076667
108.7238333
108.7393333
108.755
108.7715
108.788
108.8063333
108.8255
108.844
108.8623333
108.8796667
108.8961667
108.9135
108.9306667
108.9468333
108.9623333
108.9793333
108.9981667
109.036
109.055
109.0733333
109.0913333
109.109
109.1258333
109.1418333
109.1581667
109.1741667
109.19
109.205
109.2205
109.2378333
109.2561667
109.275
109.2946667
109.3138333
109.333
109.352
109.3698333
109.3878333
109.4051667
109.422
109.4385
109.4551667
109.472
109.4885
109.5053333
109.5228333
109.5391667
109.5551667
109.572
109.5888333
109.605
109.6216667
109.6393333
109.6561667
109.672
109.6878333
109.7043333
109.7203333
109.737
109.7548333
109.7731667
109.7906667
109.8068333
109.8226667
109.839
109.8551667
109.8716667
109.8891667
109.9061667
109.9221667
109.9376667
109.9525
109.9678333
109.9861667
110.0243333
110.0436667
110.0628333
110.0806667
110.0985
110.1161667
110.1325
110.1473333
110.1618333
110.1778333
110.1953333
110.2121667
110.2295
110.2486667
110.2673333
110.2848333
110.3028333
110.3211667
110.3393333
110.3565
110.3735
110.39
110.4055
110.4198333
110.4348333
110.4516667
110.4688333
110.4873333
110.5073333
110.526
110.5448333
110.5635
110.581
110.5963333
110.6115
110.627
110.6433333
110.6598333
110.677
110.6953333
110.713
110.7303333
110.747
110.763
110.7775
110.7911667
110.804
110.8166667
110.83
110.8486667
110.8666667
110.8871667
110.908
110.9278333
110.9466667
110.966
110.9846667
111.0191667
111.0358333
111.052
111.0676667
111.0845
111.102
111.1181667
111.1348333
111.1525
111.17
111.1878333
111.2058333
111.2231667
111.2396667
111.2571667
111.2755
111.2935
111.3103333
111.3273333
111.3448333
111.362
111.3785
111.3953333
111.4126667
111.43
111.4468333
111.4638333
111.4813333
111.499
111.516
111.5335
111.551
111.5678333
111.5836667
111.5985
111.6121667
111.6253333
111.6385
111.652
111.6658333
111.6795
111.6933333
111.7086667
111.7231667
111.738
111.7553333
111.7731667
111.7915
111.81
111.8276667
111.8453333
111.8625
111.8788333
111.8951667
111.9121667
111.9293333
111.9465
111.9645
111.9818333
111.9965
112.0226667
112.0355
112.0533333
112.0726667
112.0938333
112.115
112.1346667
112.1543333
112.1738333
112.192
112.2093333
112.2261667
112.243
112.259
112.2746667
112.2903333
112.3065
112.3226667
112.3371667
112.3505
112.3635
112.3758333
112.3883333
112.4018333
112.4195
112.4376667
112.4551667
112.4743333
112.494
112.5121667
112.5291667
112.5455
112.5618333
112.5776667
112.593
112.6096667
112.6276667
112.6453333
112.6618333
112.679
112.6965
112.7133333
112.7293333
112.7466667
112.7646667
112.7828333
112.8003333
112.8175
112.8346667
112.851
112.8668333
112.8843333
112.9023333
112.9191667
112.9356667
112.953
112.971
112.9888333
113.0245
113.0411667
113.0576667
113.0743333
113.0908333
113.1065
113.1221667
113.1381667
113.1548333
113.1715
113.189
113.207
113.2246667
113.2411667
113.258
113.2755
113.2923333
113.3083333
113.324
113.3406667
113.3581667
113.3748333
113.3928333
113.4123333
113.4313333
113.4493333
113.4676667
113.485
113.5013333
113.5178333
113.5348333
113.551
113.5666667
113.5811667
113.5945
113.6073333
113.62
113.6326667
113.646
113.6593333
113.6743333
113.6915
113.7085
113.7233333
113.7375
113.7518333
113.7658333
113.7793333
113.793
113.8081667
113.8245
113.841
113.8588333
113.8768333
113.8933333
113.9081667
113.923
113.9391667
113.9573333
113.975
113.9935
114.03
114.048
114.0663333
114.0838333
114.1013333
114.1195
114.1378333
114.1556667
114.1723333
114.1886667
114.2058333
114.223
114.2398333
114.2581667
114.2761667
114.293
114.3083333
114.3246667
114.3433333
114.3626667
114.3815
114.4006667
114.4191667
114.436
114.4526667
114.4698333
114.4883333
114.505
114.5208333
114.538
114.5571667
114.5763333
114.594
114.612
114.6293333
114.6463333
114.6621667
114.6786667
114.6951667
114.7113333
114.7265
114.7413333
114.7563333
114.7726667
114.7898333
114.8096667
114.8283333
114.8458333
114.8643333
114.8831667
114.9016667
114.9198333
114.938
114.9553333
114.9723333
114.989
115.0231667
115.0401667
115.0571667
115.0733333
115.0895
115.1061667
115.123
115.1393333
115.1555
115.1723333
115.1891667
115.2063333
115.2241667
115.2418333
115.259
115.2766667
115.2941667
115.3106667
115.3273333
115.344
115.3608333
115.377
115.3938333
115.4116667
115.43
115.4475
115.4658333
115.484
115.5013333
115.5178333
115.534
115.5505
115.5671667
115.5835
115.6
115.6166667
115.6331667
115.6498333
115.6678333
115.6861667
115.7031667
115.721
115.7388333
115.7553333
115.771
115.7875
115.8041667
115.821
115.8368333
115.8526667
115.8691667
115.8855
115.9015
115.918
115.9355
115.9533333
115.9701667
115.9876667
116.022
116.0385
116.055
116.0701667
116.0836667
116.0966667
116.1095
116.114
116.1223333
116.1353333
116.15
116.1661667
116.1871667
116.2091667
116.2306667
116.2503333
116.2708333
116.2906667
116.3086667
116.3255
116.3421667
116.3588333
116.3741667
116.39
116.4066667
116.4235
116.4401667
116.4573333
116.4743333
116.4913333
116.5091667
116.5271667
116.5438333
116.5598333
116.575
116.5888333
116.6028333
116.6166667
116.63
116.643
116.6565
116.6718333
116.69
116.7116667
116.7321667
116.7505
116.7678333
116.7851667
116.802
116.819
116.8375
116.8561667
116.8735
116.8916667
116.9105
116.9281667
116.9446667
116.9618333
116.9801667
116.9976667
117.0321667
117.0496667
117.0668333
117.0831667
117.0993333
117.1158333
117.133
117.1491667
117.1661667
117.1838333
117.201
117.2171667
117.233
117.2495
117.2668333
117.2838333
117.3011667
117.3186667
117.3355
117.3511667
117.3676667
117.385
117.4021667
117.4185
117.4343333
117.451
117.4685
117.4855
117.502
117.519
117.5358333
117.5518333
117.5673333
117.5836667
117.6006667
117.6168333
117.633
117.6495
117.665
117.6823333
117.6996667
117.7163333
117.732
117.7483333
117.7658333
117.7836667
117.8005
117.8178333
117.8356667
117.8531667
117.8691667
117.8848333
117.9011667
117.9186667
117.936
117.9538333
117.973
117.9926667
118.0275
118.0446667
118.0621667
118.0795
118.0956667
118.1116667
118.1283333
118.146
118.163
118.1798333
118.1963333
118.2135
118.2298333
118.2465
118.2638333
118.2816667
118.2983333
118.3153333
118.332
118.3485
118.3641667
118.38
118.3963333
118.4121667
118.4281667
118.4445
118.461
118.4773333
118.4928333
118.5086667
118.5243333
118.5401667
118.5565
118.5733333
118.5915
118.6116667
118.6296667
118.6455
118.6601667
118.6753333
118.6915
118.7066667
118.7213333
118.7381667
118.7576667
118.775
118.7931667
118.8118333
118.8293333
118.8463333
118.864
118.882
118.8986667
118.9151667
118.932
118.9493333
118.966
118.9823333
118.9996667
119.0343333
119.0503333
119.0668333
119.0841667
119.1013333
119.1178333
119.1343333
119.1518333
119.1691667
119.186
119.204
119.2221667
119.2396667
119.257
119.2741667
119.2911667
119.3073333
119.3231667
119.3391667
119.3555
119.3713333
119.3876667
119.4046667
119.421
119.4375
119.4543333
119.4708333
119.4863333
119.502
119.5183333
119.5346667
119.5513333
119.5678333
119.5845
119.6016667
119.6183333
119.6351667
119.6531667
119.671
119.6876667
119.7045
119.7216667
119.7383333
119.7546667
119.7708333
119.7873333
119.8036667
119.8195
119.8361667
119.8541667
119.8721667
119.8893333
119.9068333
119.925
119.9425
119.9596667
119.976
119.9921667
120.0226667
120.039
120.0568333
120.0746667
120.092
120.1103333
120.1286667
120.1456667
120.1628333
120.1798333
120.1958333
120.2106667
120.226
120.2416667
120.2575
120.2733333
120.29
120.3075
120.324
120.3403333
120.3568333
120.373
120.3885
120.4046667
120.4215
120.4376667
120.4535
120.469
120.4838333
120.499
120.514
120.5298333
120.5455
120.5625
120.5801667
120.5981667
120.6148333
120.6318333
120.6493333
120.6665
120.6821667
120.6978333
120.7135
120.7298333
120.7451667
120.7615
120.7788333
120.7955
120.8115
120.8275
120.843
120.858
120.873
120.887
120.9001667
120.913
120.926
120.9395
120.9525
120.9651667
120.9781667
120.9933333
121.0335
121.0541667
121.0725
121.0901667
121.1078333
121.125
121.141
121.1581667
121.176
121.1926667
121.2081667
121.2233333
121.2391667
121.257
121.2746667
121.2923333
121.312
121.3306667
121.3486667
121.367
121.3848333
121.401
121.4176667
121.4355
121.4533333
121.4706667
121.4881667
121.505
121.5213333
121.5373333
121.5541667
121.5713333
121.5881667
121.6056667
121.6235
121.6408333
121.6575
121.6741667
121.6906667
121.7063333
121.7223333
121.739
121.7558333
121.7721667
121.7876667
121.8018333
121.8151667
121.828
121.8411667
121.8545
121.8683333
121.8833333
121.8983333
121.914
121.9313333
121.95
121.9688333
121.9878333
122.0233333
122.0398333
122.0563333
122.0731667
122.09
122.107
122.1245
122.1426667
122.1601667
122.1768333
122.1918333
122.2055
122.2191667
122.2348333
122.2558333
122.2755
122.2935
122.3135
122.3335
122.3531667
122.3736667
122.3926667
122.4106667
122.429
122.4468333
122.4636667
122.4801667
122.4971667
122.5135
122.5308333
122.5486667
122.5658333
122.5823333
122.5991667
122.6163333
122.6335
122.6493333
122.6641667
122.6795
122.6951667
122.7108333
122.726
122.7425
122.76
122.7776667
122.794
122.8108333
122.8276667
122.8443333
122.8603333
122.8771667
122.894
122.9101667
122.9261667
122.9426667
122.959
122.9748333
122.9905
123.0238333
123.0413333
123.0581667
123.0753333
123.0935
123.1111667
123.1255
123.139
123.1516667
123.1651667
123.1808333
123.205
123.2281667
123.2506667
123.2741667
123.2958333
123.3163333
123.3368333
123.356
123.3748333
123.3933333
123.4101667
123.4271667
123.4438333
123.46
123.4765
123.4936667
123.5115
123.5286667
123.5456667
123.5621667
123.5775
123.5923333
123.6076667
123.6251667
123.644
123.6636667
123.6841667
123.7038333
123.7238333
123.7433333
123.7615
123.7795
123.7975
123.8148333
123.8328333
123.851
123.8681667
123.8851667
123.9015
123.9175
123.9328333
123.9493333
123.9686667
123.9881667
124.0263333
124.0441667
124.0615
124.079
124.096
124.1121667
124.129
124.1478333
124.1668333
124.185
124.2038333
124.2216667
124.2385
124.2546667
124.271
124.2878333
124.3046667
124.3225
124.3406667
124.358
124.375
124.3916667
124.4075
124.4231667
124.4395
124.4565
124.4736667
124.492
124.5108333
124.5295
124.5471667
124.5646667
124.5826667
124.5995
124.6161667
124.634
124.6516667
124.6688333
124.6866667
124.7048333
124.7225
124.7385
124.7541667
124.7701667
124.786
124.8008333
124.8155
124.8306667
124.8463333
124.8618333
124.8795
124.8973333
124.9145
124.9308333
124.9466667
124.962
124.9766667
124.991
125.0181667
125.0311667
125.0443333
125.058
125.0726667
125.089
125.1103333
125.131
125.15
125.1686667
125.1875
125.2055
125.2213333
125.2365
125.252
125.2678333
125.2845
125.3006667
125.3163333
125.333
125.3498333
125.366
125.3823333
125.399
125.4156667
125.4311667
125.4465
125.4621667
125.4776667
125.4926667
125.5078333
125.5223333
125.5375
125.5528333
125.5691667
125.5853333
125.6018333
125.6191667
125.6358333
125.6528333
125.6806667
125.694
125.733
125.7466667
125.76
125.7741667
125.7926667
125.8145
125.8361667
125.8558333
125.8741667
125.8935
125.9128333
125.9301667
125.947
125.9646667
125.9823333
125.9991667
126.0305
126.0473333
126.0643333
126.0811667
126.097
126.1128333
126.1295
126.1468333
126.1635
126.1798333
126.1958333
126.2123333
126.2295
126.2458333
126.2618333
126.2786667
126.2958333
126.3121667
126.3286667
126.3463333
126.3645
126.3816667
126.3988333
126.4155
126.4303333
126.4446667
126.459
126.4736667
126.4893333
126.5078333
126.5268333
126.5446667
126.5621667
126.5801667
126.5973333
126.613
126.6295
126.6453333
126.6603333
126.675
126.6895
126.7033333
126.7166667
126.7298333
126.7433333
126.7583333
126.7756667
126.792
126.8081667
126.826
126.8428333
126.8583333
126.8735
126.8886667
126.9031667
126.9168333
126.9301667
126.9433333
126.9566667
126.972
126.9913333
127.0298333
127.0475
127.064
127.0805
127.0965
127.113
127.1301667
127.148
127.1648333
127.181
127.1975
127.2143333
127.2306667
127.2463333
127.2623333
127.2786667
127.295
127.312
127.33
127.3476667
127.3646667
127.3813333
127.398
127.415
127.431
127.446
127.4613333
127.4768333
127.4928333
127.5101667
127.5286667
127.5465
127.5633333
127.5798333
127.5965
127.613
127.6288333
127.644
127.6591667
127.6755
127.691
127.7066667
127.723
127.7405
127.7566667
127.7728333
127.7893333
127.8063333
127.8246667
127.8425
127.8601667
127.879
127.898
127.919
127.9401667
127.9605
127.979
127.9993333
128.0348333
128.0516667
128.07
128.0858333
128.1011667
128.1165
128.1318333
128.146
128.1598333
128.1738333
128.1881667
128.2021667
128.2158333
128.2295
128.2431667
128.257
128.2711667
128.2845
128.2978333
128.3108333
128.3236667
128.3361667
128.3486667
128.3608333
128.3731667
128.3855
128.399
128.4138333
128.4291667
128.4448333
128.462
128.4791667
128.4961667
128.5125
128.5275
128.5418333
128.556
128.5705
128.5853333
128.6001667
128.6146667
128.6301667
128.6458333
128.6611667
128.6761667
128.6905
128.7045
128.7186667
128.7331667
128.7476667
128.7623333
128.7778333
128.7936667
128.8096667
128.825
128.8398333
128.8546667
128.8693333
128.8835
128.898
128.9128333
128.9283333
128.9436667
128.9581667
128.9723333
128.9866667
129.0141667
129.0273333
129.0401667
129.0531667
129.0665
129.0796667
129.0925
129.1058333
129.1215
129.1386667
129.155
129.1703333
129.1863333
129.2026667
129.2186667
129.2341667
129.249
129.264
129.2795
129.2948333
129.31
129.325
129.3398333
129.3551667
129.3701667
129.3846667
129.399
129.4136667
129.4288333
129.4438333
129.4591667
129.4748333
129.4906667
129.507
129.5233333
129.5386667
129.5538333
129.5683333
129.583
129.5985
129.6161667
129.6325
129.6491667
129.6666667
129.6843333
129.7018333
129.7186667
129.736
129.7531667
129.7701667
129.787
129.8036667
129.8201667
129.8366667
129.8531667
129.87
129.8868333
129.9178333
129.9331667
129.9485
129.9761667
129.9895
130.0158333
130.0288333
130.0421667
130.0553333
130.0688333
130.082
130.1075
130.1201667
130.1328333
130.1453333
130.1578333
130.1705
130.1831667
130.2086667
130.2221667
130.2366667
130.2518333
130.2668333
130.2818333
130.2973333
130.313
130.3285
130.3433333
130.3585
130.374
130.3901667
130.4058333
130.4215
130.437
130.4526667
130.4681667
130.4828333
130.4975
130.5123333
130.5275
130.5428333
130.5578333
130.5731667
130.5885
130.6041667
130.6193333
130.6338333
130.6481667
130.6625
130.6773333
130.6921667
130.7068333
130.7215
130.7365
130.7518333
130.7671667
130.782
130.7968333
130.8115
130.826
130.8405
130.855
130.8695
130.8846667
130.901
130.9181667
130.9351667
130.9516667
130.9685
130.9858333
131.0203333
131.0393333
131.0576667
131.0763333
131.0946667
131.112
131.1285
131.1448333
131.1613333
131.1773333
131.1936667
131.2101667
131.2263333
131.2415
131.2568333
131.272
131.287
131.3016667
131.3161667
131.3308333
131.3456667
131.3606667
131.3756667
131.3905
131.4053333
131.4203333
131.4356667
131.4506667
131.4658333
131.4811667
131.4966667
131.5116667
131.5263333
131.5415
131.5565
131.571
131.5855
131.6001667
131.6153333
131.6308333
131.6461667
131.6621667
131.6783333
131.6938333
131.7086667
131.723
131.7373333
131.7518333
131.7661667
131.7816667
131.7985
131.8163333
131.8346667
131.8531667
131.872
131.8893333
131.9063333
131.9231667
131.9388333
131.9543333
131.9698333
131.9856667
132.0156667
132.0306667
132.0456667
132.0606667
132.0756667
132.0908333
132.106
132.121
132.1353333
132.15
132.1646667
132.1801667
132.1971667
132.2163333
132.2353333
132.2548333
132.2735
132.2915
132.3091667
132.3258333
132.3411667
132.357
132.3735
132.3893333
132.4055
132.4216667
132.4368333
132.4513333
132.4655
132.4796667
132.4935
132.5071667
132.5206667
132.534
132.5473333
132.5606667
132.574
132.5873333
132.601
132.615
132.6291667
132.6435
132.6578333
132.672
132.686
132.6998333
132.7135
132.727
132.7406667
132.7548333
132.7696667
132.7845
132.7996667
132.8155
132.8313333
132.8466667
132.8615
132.8755
132.8893333
132.9033333
132.9178333
132.9321667
132.9461667
132.96
132.9741667
132.9881667
133.017
133.0318333
133.0468333
133.0613333
133.076
133.0908333
133.1056667
133.1201667
133.1345
133.1491667
133.1641667
133.1811667
133.1995
133.2171667
133.2363333
133.2541667
133.2718333
133.2888333
133.3061667
133.3241667
133.342
133.3595
133.3781667
133.397
133.417
133.4388333
133.4596667
133.4785
133.496
133.5141667
133.5321667
133.5501667
133.5681667
133.5855
133.6025
133.6193333
133.6361667
133.6543333
133.675
133.6945
133.7131667
133.7311667
133.749
133.7656667
133.7818333
133.7975
133.8146667
133.8341667
133.8513333
133.8676667
133.883
133.8978333
133.9118333
133.9256667
133.9393333
133.9523333
133.9653333
133.9781667
133.9908333
134.0156667
134.028
134.0401667
134.0523333
134.0643333
134.0763333
134.0883333
134.1005
134.1126667
134.125
134.1376667
134.1503333
134.1631667
134.1761667
134.1891667
134.2021667
134.215
134.228
134.2411667
134.2541667
134.2675
134.2808333
134.294
134.3071667
134.3201667
134.333
134.3456667
134.3581667
134.3705
134.3826667
134.3946667
134.4066667
134.4126667
134.4188333
134.4305
134.4425
134.4545
134.4666667
134.491
134.5036667
134.517
134.5303333
134.5436667
134.5575
134.5711667
134.585
134.5985
134.6118333
134.6251667
134.6381667
134.6511667
134.664
134.6768333
134.69
134.7033333
134.7165
134.7296667
134.7426667
134.7556667
134.7686667
134.7813333
134.794
134.8065
134.819
134.8315
134.8688333
134.881
134.8931667
134.9055
134.9176667
134.93
134.9423333
134.9545
134.9668333
134.979
134.9911667
135.0513333
135.063
135.0746667
135.0861667
135.0976667
135.1091667
135.1211667
135.1346667
135.151
135.1675
135.183
135.1981667
135.2135
135.228
135.2418333
135.255
135.268
135.2808333
135.2935
135.3063333
135.3195
135.333
135.3468333
135.3605
135.374
135.3871667
135.4
135.4125
135.4191667
135.425
135.4371667
135.449
135.4608333
135.4723333
135.4835
135.495
135.5063333
135.5176667
135.5288333
135.5398333
135.5508333
135.5618333
135.5726667
135.5835
135.5941667
135.6048333
135.6155
135.6261667
135.6368333
135.6476667
135.6585
135.67
135.6815
135.693
135.7046667
135.7161667
135.728
135.74
135.7523333
135.7645
135.7773333
135.7908333
135.8043333
135.8181667
135.8316667
135.8448333
135.8581667
135.8715
135.8853333
135.8993333
135.914
135.9295
135.9456667
135.9608333
135.9753333
135.9896667
136.0178333
136.0316667
136.0455
136.0593333
136.0735
136.0876667
136.1025
136.1168333
136.1315
136.1463333
136.161
136.1751667
136.1886667
136.2028333
136.2165
136.2301667
136.2433333
136.2571667
136.271
136.2853333
136.3
136.3141667
136.328
136.342
136.3561667
136.3705
136.3846667
136.3985
136.4128333
136.4275
136.4423333
136.4568333
136.4706667
136.4843333
136.4976667
136.5108333
136.5236667
136.5361667
136.5485
136.5611667
136.574
136.5868333
136.5998333
136.6126667
136.638
136.6505
136.663
136.6756667
136.6883333
136.7011667
136.7138333
136.7263333
136.7388333
136.7513333
136.7641667
136.7776667
136.7913333
136.8048333
136.8311667
136.8693333
136.8818333
136.9438333
136.9821667
136.9963333
137.025
137.039
137.0538333
137.0688333
137.0846667
137.0988333
137.1131667
137.128
137.1426667
137.1571667
137.1708333
137.1855
137.2005
137.2155
137.229
137.2433333
137.2571667
137.2713333
137.2851667
137.2986667
137.3123333
137.3268333
137.3411667
137.3555
137.3688333
137.3823333
137.3958333
137.4083333
137.4208333
137.4336667
137.4461667
137.4583333
137.4706667
137.4831667
137.496
137.509
137.5226667
137.5368333
137.5506667
137.5638333
137.5776667
137.591
137.6043333
137.6178333
137.6313333
137.6453333
137.6605
137.6755
137.6908333
137.7066667
137.7215
137.7355
137.7486667
137.7615
137.7745
137.7916667
137.7998333
137.8126667
137.8181667
137.8225
137.8281667
137.833
137.8386667
137.8516667
137.8646667
137.8776667
137.9155
137.9273333
137.9393333
137.9511667
137.9628333
137.975
137.9876667
138.0145
138.0291667
138.0445
138.0595
138.0741667
138.0888333
138.1036667
138.1176667
138.1316667
138.1456667
138.1591667
138.1728333
138.1868333
138.2018333
138.217
138.2321667
138.2465
138.2601667
138.2736667
138.2875
138.3015
138.3156667
138.329
138.3423333
138.3558333
138.37
138.3848333
138.3985
138.4115
138.4243333
138.4373333
138.4503333
138.4631667
138.4761667
138.4891667
138.5021667
138.5151667
138.5278333
138.5406667
138.5535
138.5663333
138.5791667
138.592
138.605
138.6185
138.6318333
138.6453333
138.6586667
138.672
138.6851667
138.6983333
138.7115
138.7243333
138.7371667
138.75
138.7633333
138.7773333
138.792
138.8073333
138.823
138.837
138.8505
138.8635
138.8763333
138.8886667
138.901
138.9256667
138.9383333
138.9506667
138.9631667
138.9753333
138.9875
138.9998333
139.0251667
139.0375
139.05
139.0626667
139.0753333
139.0885
139.1015
139.115
139.1283333
139.1413333
139.1548333
139.1685
139.182
139.1943333
139.2081667
139.2206667
139.2333333
139.2455
139.257
139.2685
139.2798333
139.2911667
139.3023333
139.3135
139.3245
139.3353333
139.3461667
139.3571667
139.3683333
139.3808333
139.395
139.409
139.4231667
139.4368333
139.4498333
139.4628333
139.475
139.4866667
139.498
139.5091667
139.5201667
139.5351667
139.5458333
139.5611667
139.5821667
139.5871667
139.6271667
139.6335
139.639
139.6401667
139.6461667
139.6495
139.6556667
139.6611667
139.6731667
139.7093333
139.723
139.7258333
139.7568333
139.7688333
139.7756667
139.7796667
139.7931667
139.8053333
139.817
139.8288333
139.841
139.8501667
139.8521667
139.8546667
139.8781667
139.884
139.8903333
139.9021667
139.9138333
139.9253333
139.9368333
139.9485
139.961
139.9743333
139.9883333
140.015
140.0275
140.04
140.0525
140.0648333
140.077
140.0891667
140.101
140.113
140.1248333
140.1366667
140.1491667
140.1623333
140.1768333
140.1908333
140.2038333
140.217
140.2305
140.2441667
140.257
140.2701667
140.2765
140.2831667
140.2931667
140.308
140.3321667
140.3671667
140.3798333
140.393
140.4065
140.4211667
140.436
140.4511667
140.4661667
140.48
140.494
140.508
140.5218333
140.5345
140.5475
140.5605
140.573
140.5851667
140.5975
140.6108333
140.6263333
140.6411667
140.6568333
140.6721667
140.6865
140.6998333
140.713
140.726
140.739
140.7521667
140.7655
140.7803333
140.7966667
140.8131667
140.828
140.8425
140.8565
140.8701667
140.8831667
140.896
140.9098333
140.925
140.9411667
140.9563333
140.9721667
140.9885
141.0176667
141.032
141.0465
141.0601667
141.0735
141.088
141.103
141.1185
141.133
141.1476667
141.1631667
141.1786667
141.193
141.2073333
141.2226667
141.2383333
141.2535
141.268
141.2831667
141.2985
141.3138333
141.3278333
141.3418333
141.3555
141.3681667
141.3808333
141.394
141.4085
141.4226667
141.4653333
141.4796667
141.4933333
141.5065
141.5198333
141.5338333
141.5483333
141.5626667
141.5768333
141.5913333
141.606
141.6206667
141.6353333
141.6508333
141.6661667
141.6808333
141.696
141.7116667
141.727
141.7425
141.7581667
141.774
141.7895
141.8051667
141.8216667
141.8383333
141.8541667
141.8703333
141.887
141.9036667
141.9191667
141.935
141.9511667
141.9675
141.983
141.999
142.0306667
142.046
142.0613333
142.0775
142.0938333
142.1091667
142.1248333
142.1405
142.1565
142.1713333
142.1856667
142.2001667
142.2145
142.2285
142.2423333
142.257
142.2723333
142.2881667
142.3035
142.3191667
142.335
142.3505
142.3648333
142.3793333
142.394
142.4093333
142.4245
142.44
142.4565
142.4735
142.4895
142.5053333
142.5206667
142.5353333
142.5493333
142.5638333
142.5798333
142.5963333
142.6121667
142.6285
142.6453333
142.6615
142.6766667
142.6923333
142.7078333
142.7235
142.7383333
142.7531667
142.7678333
142.7825
142.7963333
142.8093333
142.8228333
142.8375
142.8523333
142.8676667
142.8841667
142.9011667
142.9175
142.9323333
142.9471667
142.9625
142.9783333
142.9945
143.0258333
143.043
143.0603333
143.0766667
143.0918333
143.107
143.123
143.1395
143.1555
143.1716667
143.1888333
143.2068333
143.2236667
143.2391667
143.2548333
143.271
143.2871667
143.3025
143.3178333
143.3341667
143.3511667
143.368
143.3835
143.3995
143.416
143.4326667
143.448
143.4631667
143.4786667
143.4953333
143.5121667
143.5276667
143.543
143.5588333
143.5748333
143.5901667
143.6053333
143.6208333
143.6361667
143.6511667
143.6656667
143.681
143.6968333
143.7126667
143.7278333
143.7436667
143.7595
143.7751667
143.7901667
143.8051667
143.821
143.8375
143.8543333
143.8703333
143.8873333
143.9041667
143.9206667
143.936
143.951
143.9666667
143.983
143.9988333
144.0303333
144.0475
144.0645
144.0806667
144.0975
144.1143333
144.1306667
144.146
144.1626667
144.1798333
144.1976667
144.2146667
144.2321667
144.25
144.2675
144.2838333
144.2998333
144.3148333
144.3288333
144.343
144.3581667
144.3738333
144.3898333
144.4056667
144.4205
144.434
144.4481667
144.4618333
144.475
144.488
144.5016667
144.5158333
144.5296667
144.5436667
144.5588333
144.5751667
144.5918333
144.6076667
144.623
144.6388333
144.6546667
144.6701667
144.685
144.7005
144.7153333
144.729
144.7423333
144.7565
144.7725
144.7881667
144.8048333
144.8218333
144.8385
144.8536667
144.8691667
144.8853333
144.9023333
144.9191667
144.935
144.9515
144.9678333
144.9843333
144.9995
145.032
145.0483333
145.0635
145.0791667
145.095
145.1111667
145.1263333
145.142
145.158
145.1743333
145.19
145.2063333
145.223
145.2403333
145.2568333
145.2735
145.2905
145.3078333
145.3243333
145.3411667
145.3583333
145.3756667
145.3923333
145.4088333
145.4258333
145.4431667
145.4601667
145.4763333
145.4931667
145.5101667
145.5271667
145.5431667
145.5586667
145.575
145.5918333
145.6088333
145.6251667
145.6413333
145.6578333
145.6741667
145.69
145.705
145.7208333
145.7375
145.7548333
145.7718333
145.7878333
145.8036667
145.82
145.8363333
145.8526667
145.8686667
145.8853333
145.9028333
145.9206667
145.9376667
145.9546667
145.9716667
145.9888333
146.022
146.0386667
146.0551667
146.0713333
146.0876667
146.1041667
146.121
146.137
146.153
146.1698333
146.1873333
146.2045
146.222
146.2395
146.2566667
146.2726667
146.2876667
146.3026667
146.3183333
146.3343333
146.3495
146.365
146.3795
146.3931667
146.4068333
146.4218333
146.4383333
146.4543333
146.4708333
146.4873333
146.5038333
146.5193333
146.5338333
146.5488333
146.5643333
146.58
146.595
146.6096667
146.625
146.6408333
146.6565
146.6715
146.6871667
146.7033333
146.7188333
146.7338333
146.7493333
146.7655
146.7816667
146.797
146.8116667
146.8256667
146.839
146.8525
146.8676667
146.8831667
146.8998333
146.9171667
146.9348333
146.9511667
146.9668333
146.9816667
146.9968333
147.0606667
147.0761667
147.0901667
147.1041667
147.118
147.1316667
147.145
147.158
147.172
147.1878333
147.2038333
147.2206667
147.2383333
147.2556667
147.2715
147.287
147.3026667
147.3185
147.3341667
147.3493333
147.3651667
147.3813333
147.3968333
147.4115
147.427
147.4428333
147.4585
147.4731667
147.4883333
147.5036667
147.5195
147.535
147.5508333
147.5666667
147.5826667
147.5976667
147.6128333
147.6281667
147.6438333
147.6593333
147.6758333
147.6928333
147.7096667
147.726
147.7423333
147.7588333
147.7746667
147.7903333
147.8065
147.823
147.8388333
147.8538333
147.8693333
147.8853333
147.901
147.916
147.9313333
147.947
147.9626667
147.9778333
147.9938333
148.0265
148.042
148.058
148.0743333
148.0901667
148.1051667
148.1208333
148.1366667
148.1525
148.1678333
148.1835
148.2
148.2163333
148.2318333
148.2473333
148.2626667
148.2783333
148.2935
148.3091667
148.3256667
148.3423333
148.3583333
148.3753333
148.3928333
148.4095
148.4268333
148.4443333
148.4613333
148.478
148.4951667
148.5125
148.5296667
148.5463333
148.5633333
148.5806667
148.5976667
148.6136667
148.6296667
148.6463333
148.664
148.6813333
148.699
148.7166667
148.734
148.7503333
148.7661667
148.7825
148.7996667
148.8168333
148.8353333
148.854
148.8718333
148.8888333
148.906
148.9228333
148.9388333
148.9546667
148.971
148.9883333
149.0225
149.039
149.0551667
149.0716667
149.0881667
149.1056667
149.1238333
149.142
149.1591667
149.1761667
149.1931667
149.21
149.2256667
149.2418333
149.2586667
149.2758333
149.2923333
149.3091667
149.3265
149.3438333
149.3608333
149.3781667
149.3955
149.4128333
149.429
149.4451667
149.4618333
149.4793333
149.4965
149.5145
149.5326667
149.5505
149.5671667
149.5841667
149.6016667
149.6188333
149.6353333
149.6523333
149.6695
149.6863333
149.7023333
149.7181667
149.7338333
149.7491667
149.7631667
149.7763333
149.7893333
149.8028333
149.8173333
149.8323333
149.847
149.8616667
149.8758333
149.8901667
149.8953333
149.9038333
149.9176667
149.931
149.9438333
149.956
149.9675
149.9788333
149.9903333
150.0098333
150.0213333
150.0238333
150.04
150.047
150.0521667
150.0586667
150.0705
150.0818333
150.0931667
150.1045
150.1156667
150.1278333
150.138
150.1491667
150.1608333
150.1735
150.187
150.2021667
150.2168333
150.2306667
150.244
150.258
150.2721667
150.2868333
150.3023333
150.3171667
150.3321667
150.3476667
150.3636667
150.3783333
150.3935
150.4095
150.4258333
150.4413333
150.4576667
150.4755
150.493
150.5095
150.5253333
150.5406667
150.5556667
150.5695
150.5841667
150.5998333
150.6156667
150.631
150.6458333
150.6626667
150.68
150.6963333
150.7123333
150.7278333
150.7436667
150.7585
150.7733333
150.7895
150.8061667
150.8221667
150.839
150.8563333
150.8733333
150.8896667
150.9061667
150.9231667
150.9395
150.955
150.9706667
150.987
151.0201667
151.036
151.052
151.0688333
151.0846667
151.0996667
151.1151667
151.1316667
151.148
151.1635
151.2128333
151.2293333
151.2453333
151.2613333
151.2778333
151.2936667
151.3086667
151.3236667
151.3391667
151.3551667
151.3708333
151.4043333
151.4213333
151.4371667
151.4701667
151.486
151.5011667
151.5473333
151.5633333
151.5786667
151.6118333
151.629
151.6456667
151.6613333
151.6765
151.6918333
151.7065
151.7211667
151.7371667
151.754
151.7701667
151.803
151.8195
151.8353333
151.8813333
151.8955
151.9246667
151.9393333
151.9536667
151.9983333
152.0263333
152.0403333
152.0535
152.0668333
152.0808333
152.0956667
152.1105
152.126
152.143
152.16
152.1763333
152.1925
152.2091667
152.2263333
152.2428333
152.2605
152.2781667
152.2951667
152.3108333
152.3265
152.343
152.3603333
152.3766667
152.3936667
152.4121667
152.4296667
152.4463333
152.4638333
152.481
152.4971667
152.5295
152.546
152.5613333
152.577
152.5933333
152.6095
152.6248333
152.641
152.6588333
152.6761667
152.6931667
152.7108333
152.7285
152.7455
152.762
152.7795
152.7971667
152.8141667
152.8301667
152.8466667
152.8631667
152.8791667
152.895
152.9118333
152.9293333
152.9468333
152.963
152.98
152.9981667
153.0326667
153.0501667
153.068
153.0853333
153.1015
153.1181667
153.1355
153.1533333
153.1703333
153.1885
153.2065
153.2238333
153.2401667
153.2568333
153.274
153.2913333
153.3078333
153.3246667
153.3411667
153.3568333
153.3716667
153.387
153.4028333
153.4195
153.4363333
153.4533333
153.4688333
153.4748333
153.4783333
153.4828333
153.4958333
153.5085
153.5213333
153.534
153.5468333
153.5605
153.5741667
153.587
153.6393333
153.6521667
153.6651667
153.6785
153.6915
153.7051667
153.7195
153.7336667
153.7475
153.7611667
153.7751667
153.7903333
153.8058333
153.8208333
153.8531667
153.87
153.8861667
153.9033333
153.921
153.9378333
153.9541667
153.9716667
153.9896667
154.0423333
154.0608333
154.0783333
154.0955
154.1131667
154.1305
154.1473333
154.1645
154.1821667
154.1996667
154.216
154.2333333
154.2513333
154.269
154.286
154.3036667
154.3216667
154.3388333
154.3563333
154.3741667
154.3918333
154.4088333
154.4261667
154.4436667
154.461
154.4778333
154.495
154.5123333
154.5291667
154.5455
154.5626667
154.58
154.5971667
154.6135
154.6303333
154.648
154.666
154.6833333
154.7011667
154.7186667
154.7358333
154.752
154.769
154.7866667
154.8043333
154.8215
154.8395
154.8575
154.8746667
154.8921667
154.9098333
154.9268333
154.9435
154.9595
154.9755
154.9918333
155.0246667
155.0421667
155.0593333
155.076
155.0931667
155.1108333
155.1281667
155.1456667
155.1628333
155.1793333
155.196
155.2128333
155.2296667
155.2453333
155.2611667
155.2778333
155.2945
155.3106667
155.327
155.3433333
155.3595
155.375
155.3908333
155.4071667
155.4235
155.4396667
155.4566667
155.4745
155.4923333
155.5091667
155.5265
155.5443333
155.5621667
155.5788333
155.5958333
155.613
155.6296667
155.6456667
155.6623333
155.679
155.695
155.7106667
155.7268333
155.7443333
155.7616667
155.7796667
155.797
155.8136667
155.8296667
155.8465
155.8638333
155.8811667
155.8975
155.9145
155.9318333
155.9488333
155.9668333
155.9848333
156.0193333
156.0365
156.0528333
156.0683333
156.084
156.0998333
156.1163333
156.1326667
156.1493333
156.1666667
156.1831667
156.1985
156.2143333
156.231
156.2475
156.2635
156.2803333
156.2978333
156.3146667
156.3316667
156.349
156.366
156.383
156.4006667
156.4185
156.4353333
156.4516667
156.468
156.485
156.5018333
156.5183333
156.5355
156.5525
156.5691667
156.5863333
156.6038333
156.6211667
156.6391667
156.6571667
156.6743333
156.6918333
156.7088333
156.7256667
156.7415
156.7725
156.79
156.8078333
156.826
156.8451667
156.8638333
156.8815
156.9165
156.9336667
156.95
156.966
156.9825
156.9991667
157.0325
157.0493333
157.0666667
157.0835
157.0995
157.1163333
157.1335
157.151
157.169
157.187
157.2038333
157.2215
157.2395
157.2571667
157.2746667
157.2926667
157.3105
157.3271667
157.3433333
157.3596667
157.3761667
157.3918333
157.4065
157.4213333
157.435
157.449
157.4625
157.4758333
157.4898333
157.507
157.5248333
157.5413333
157.5581667
157.575
157.5918333
157.6075
157.6233333
157.6395
157.6558333
157.6721667
157.69
157.7081667
157.726
157.7428333
157.7595
157.7758333
157.7921667
157.8085
157.8265
157.8453333
157.8638333
157.8825
157.9008333
157.9193333
157.9363333
157.9533333
157.9705
157.988
158.0235
158.042
158.0603333
158.0776667
158.0945
158.1118333
158.1298333
158.147
158.1648333
158.1831667
158.201
158.2195
158.2385
158.257
158.276
158.2946667
158.3125
158.3291667
158.3458333
158.3626667
158.3793333
158.3971667
158.4148333
158.4318333
158.4483333
158.4658333
158.4831667
158.5001667
158.5173333
158.5348333
158.5521667
158.5696667
158.5873333
158.6045
158.621
158.6383333
158.656
158.6736667
158.6905
158.7071667
158.7235
158.74
158.7563333
158.7728333
158.79
158.8065
158.8231667
158.84
158.857
158.8736667
158.8908333
158.9083333
158.9255
158.943
158.9611667
158.9783333
158.9958333
159.031
159.0478333
159.0641667
159.0808333
159.098
159.115
159.1328333
159.1503333
159.1673333
159.185
159.2028333
159.2205
159.2368333
159.2536667
159.2705
159.2875
159.3043333
159.3203333
159.3371667
159.3546667
159.3713333
159.3876667
159.4046667
159.422
159.4383333
159.4545
159.4708333
159.487
159.5033333
159.5211667
159.5396667
159.5573333
159.5753333
159.5935
159.6115
159.6285
159.6458333
159.663
159.6793333
159.696
159.7131667
159.7305
159.7471667
159.7646667
159.7828333
159.8003333
159.818
159.8361667
159.8543333
159.8716667
159.8888333
159.9065
159.9231667
159.9388333
159.9533333
159.9676667
159.983
159.9998333
160.0381667
160.0583333
160.079
160.0998333
160.1191667
160.1378333
160.1561667
160.1736667
160.1905
160.2075
160.2248333
160.2411667
160.2576667
160.2745
160.2921667
160.31
160.3286667
160.3476667
160.3658333
160.3838333
160.4018333
160.4198333
160.4371667
160.4543333
160.4728333
160.4911667
160.5088333
160.5271667
160.545
160.5623333
160.5788333
160.5958333
160.613
160.63
160.6468333
160.6648333
160.6836667
160.7008333
160.7163333
160.7316667
160.7475
160.7641667
160.783
160.8036667
160.8246667
160.8451667
160.8658333
160.8855
160.9036667
160.9215
160.939
160.9555
160.9708333
160.9866667
161.0193333
161.0356667
161.0531667
161.0706667
161.0875
161.1048333
161.1225
161.14
161.1568333
161.1735
161.19
161.2065
161.2236667
161.2413333
161.2585
161.2743333
161.2893333
161.3038333
161.3183333
161.3331667
161.3506667
161.3708333
161.391
161.4111667
161.4311667
161.4501667
161.4691667
161.4878333
161.5051667
161.5226667
161.5398333
161.5568333
161.5741667
161.5918333
161.609
161.626
161.6423333
161.6588333
161.6755
161.6921667
161.7098333
161.7283333
161.7461667
161.764
161.7815
161.799
161.816
161.8336667
161.8515
161.8688333
161.8856667
161.9015
161.9163333
161.9308333
161.9456667
161.9616667
161.9785
161.998
162.0366667
162.0556667
162.0741667
162.092
162.1101667
162.128
162.145
162.1623333
162.1798333
162.1975
162.2141667
162.2313333
162.2491667
162.2666667
162.2835
162.3006667
162.318
162.3351667
162.3525
162.3703333
162.3885
162.4056667
162.4235
162.4413333
162.4586667
162.4751667
162.4911667
162.5066667
162.5215
162.5365
162.552
162.5695
162.5875
162.606
162.6246667
162.6425
162.6598333
162.6775
162.6948333
162.7111667
162.7273333
162.7435
162.7601667
162.7758333
162.7918333
162.808
162.8233333
162.8376667
162.852
162.8668333
162.8831667
162.9021667
162.9235
162.944
162.9645
162.9851667
163.0233333
163.0415
163.0593333
163.0765
163.0933333
163.1101667
163.127
163.1433333
163.1601667
163.1768333
163.1931667
163.2085
163.2245
163.2413333
163.2595
163.2973333
163.3163333
163.3348333
163.3531667
163.371
163.3878333
163.4045
163.4216667
163.4393333
163.4563333
163.4736667
163.4906667
163.5078333
163.5251667
163.5425
163.5595
163.577
163.5943333
163.6106667
163.6261667
163.641
163.6556667
163.6903333
163.711
163.7311667
163.7521667
163.7723333
163.8113333
163.8296667
163.8463333
163.8628333
163.8791667
163.8956667
163.9115
163.945
163.9625
163.9786667
163.9945
164.0263333
164.044
164.0623333
164.0803333
164.0985
164.1175
164.136
164.1536667
164.1713333
164.189
164.2055
164.2218333
164.2386667
164.2558333
164.2723333
164.2893333
164.3065
164.3228333
164.3388333
164.3541667
164.3693333
164.386
164.4038333
164.4225
164.4405
164.459
164.4776667
164.4955
164.5131667
164.5311667
164.5493333
164.5666667
164.5841667
164.6016667
164.6188333
164.6351667
164.6523333
164.6698333
164.6863333
164.7023333
164.7176667
164.7326667
164.747
164.7616667
164.7778333
164.7956667
164.8143333
164.8341667
164.854
164.8731667
164.893
164.9123333
164.9305
164.9483333
164.966
164.9828333
165.0336667
165.0508333
165.0683333
165.0851667
165.101
165.1163333
165.1313333
165.1458333
165.1608333
165.1781667
165.198
165.2175
165.2381667
165.2585
165.278
165.297
165.3151667
165.3325
165.3496667
165.3663333
165.3825
165.399
165.4161667
165.433
165.4496667
165.4665
165.4815
165.4958333
165.5103333
165.5263333
165.5438333
165.5635
165.5841667
165.6045
165.6243333
165.6441667
165.6628333
165.6806667
165.6988333
165.7168333
165.7341667
165.7506667
165.768
165.786
165.8035
165.8208333
165.8383333
165.8551667
165.8701667
165.8846667
165.8996667
165.9161667
165.9325
165.9505
165.9721667
165.993
166.0331667
166.0526667
166.0716667
166.09
166.1076667
166.125
166.1428333
166.1601667
166.1765
166.1933333
166.2105
166.2273333
166.2448333
166.2621667
166.2791667
166.2943333
166.3088333
166.3231667
166.3376667
166.3545
166.374
166.3936667
166.4138333
166.4336667
166.4528333
166.4716667
166.4903333
166.5085
166.5263333
166.5441667
166.5613333
166.5783333
166.5955
166.6128333
166.63
166.6481667
166.6668333
166.6846667
166.7013333
166.7171667
166.7321667
166.747
166.7626667
166.78
166.7988333
166.8178333
166.8386667
166.8595
166.879
166.8983333
166.9166667
166.934
166.9516667
166.9693333
166.9868333
167.023
167.041
167.0576667
167.0733333
167.0885
167.1028333
167.1168333
167.1305
167.1465
167.1665
167.188
167.2293333
167.2495
167.2686667
167.2873333
167.3055
167.322
167.3373333
167.3531667
167.3705
167.389
167.407
167.4255
167.4445
167.4625
167.4796667
167.4958333
167.5111667
167.5266667
167.5445
167.564
167.583
167.6026667
167.6215
167.6401667
167.6588333
167.677
167.6938333
167.7108333
167.7276667
167.7438333
167.7605
167.7776667
167.7955
167.8128333
167.83
167.8476667
167.8655
167.8831667
167.9
167.9151667
167.9298333
167.9441667
167.9591667
167.9966667
168.0375
168.0588333
168.0795
168.0988333
168.1175
168.1358333
168.1536667
168.1703333
168.187
168.2036667
168.2198333
168.2363333
168.2536667
168.271
168.288
168.304
168.319
168.3331667
168.3643333
168.3833333
168.402
168.4223333
168.4433333
168.4628333
168.4823333
168.5016667
168.5193333
168.5358333
168.551
168.5651667
168.5798333
168.5976667
168.6175
168.637
168.658
168.6781667
168.6968333
168.7333333
168.7513333
168.7683333
168.7865
168.8053333
168.8236667
168.8411667
168.8593333
168.877
168.8931667
168.9078333
168.9221667
168.9368333
168.9521667
168.9911667
169.0316667
169.0518333
169.072
169.0908333
169.1095
169.1278333
169.1458333
169.1625
169.1795
169.197
169.2141667
169.2311667
169.2486667
169.2665
169.284
169.3018333
169.3186667
169.334
169.3481667
169.3623333
169.3763333
169.391
169.4306667
169.4515
169.4723333
169.4933333
169.5128333
169.5305
169.5478333
169.5655
169.5828333
169.6178333
169.6355
169.6525
169.6858333
169.7028333
169.719
169.736
169.7536667
169.7713333
169.8053333
169.821
169.8355
169.866
169.883
169.9003333
169.9195
169.9403333
169.9598333
169.9796667
169.9996667
170.0366667
170.0545
170.0723333
170.089
170.1056667
170.1226667
170.139
170.1566667
170.1748333
170.1926667
170.2091667
170.2253333
170.2408333
170.255
170.2825
170.2978333
170.3166667
170.3581667
170.379
170.3981667
170.4178333
170.4371667
170.4548333
170.471
170.4878333
170.5045
170.5205
170.5375
170.5553333
170.5733333
170.5911667
170.6091667
170.6273333
170.6446667
170.6776667
170.694
170.7088333
170.7398333
170.7573333
170.775
170.8108333
170.8285
170.8455
170.8631667
170.8811667
170.8978333
170.9311667
170.9483333
170.9646667
170.9818333
170.9993333
171.0336667
171.0505
171.0671667
171.0841667
171.0995
171.1296667
171.1446667
171.1803333
171.2003333
171.2196667
171.2396667
171.2586667
171.2771667
171.2956667
171.3138333
171.3303333
171.364
171.3813333
171.3978333
171.433
171.4508333
171.4678333
171.4855
171.5033333
171.5203333
171.5361667
171.552
171.5676667
171.5838333
171.6188333
171.6371667
171.6555
171.6745
171.693
171.7103333
171.7281667
171.7458333
171.763
171.779
171.7955
171.8126667
171.8301667
171.8471667
171.8655
171.8843333
171.9025
171.9203333
171.939
171.957
171.9736667
172.0358333
172.0708333
172.089
172.1256667
172.1441667
172.1623333
172.198
172.2165
172.2343333
172.2708333
172.2888333
172.306
172.3241667
172.3425
172.36
172.3945
172.411
172.4265
172.4718333
172.4888333
172.5253333
172.5431667
172.598
172.6343333
172.6526667
172.6695
172.6866667
172.7038333
172.721
172.7376667
172.7548333
172.7723333
172.7893333
172.8055
172.8218333
172.8376667
172.8523333
172.8845
172.9036667
172.9218333
172.9406667
172.9593333
172.9773333
172.9948333
173.0456667
173.0618333
173.094
173.1113333
173.1283333
173.1448333
173.1618333
173.1791667
173.1963333
173.2131667
173.231
173.2471667
173.2615
173.2893333
173.3081667
173.3281667
173.3496667
173.3713333
173.3926667
173.4143333
173.4345
173.4545
173.4738333
173.492
173.5096667
173.5271667
173.544
173.5605
173.5781667
173.5966667
173.6143333
173.6321667
173.6503333
173.6683333
173.6855
173.7026667
173.7191667
173.735
173.7498333
173.7655
173.7826667
173.8005
173.8178333
173.8356667
173.8545
173.8728333
173.8898333
173.9073333
173.9258333
173.9441667
173.9608333
173.9778333
173.995
174.0453333
174.063
174.0803333
174.0988333
174.1168333
174.1338333
174.1503333
174.166
174.1811667
174.1958333
174.2288333
174.2476667
174.2663333
174.2858333
174.3056667
174.324
174.3418333
174.3595
174.376
174.3918333
174.408
174.4241667
174.4398333
174.4558333
174.4723333
174.4891667
174.5048333
174.5201667
174.535
174.5496667
174.5661667
174.584
174.6015
174.6378333
174.6563333
174.6743333
174.6923333
174.7105
174.7276667
174.7441667
174.761
174.7783333
174.7951667
174.8118333
174.8293333
174.847
174.8638333
174.8801667
174.8976667
174.9155
174.9323333
174.964
174.9795
174.995
175.0476667
175.0661667
175.0845
175.102
175.136
175.1535
175.1698333
175.203
175.22
175.2358333
175.2698333
175.2866667
175.3026667
175.3195
175.3363333
175.3526667
175.385
175.4011667
175.4166667
175.4496667
175.467
175.5035
175.5215
175.5378333
175.5545
175.5715
175.5875
175.6211667
175.6383333
175.655
175.6723333
175.6901667
175.7076667
175.7416667
175.7585
175.7746667
175.8068333
175.8221667
175.8373333
175.8705
175.8885
175.9055
175.939
175.956
175.9728333
175.9886667
176.039
176.0736667
176.0901667
176.1045
176.1355
176.1543333
176.1728333
176.193
176.214
176.2553333
176.2746667
176.3113333
176.3293333
176.3458333
176.3628333
176.3801667
176.397
176.4323333
176.4503333
176.4673333
176.5125
176.528
176.5663333
176.5871667
176.6076667
176.629
176.6483333
176.6655
176.7
176.7178333
176.7351667
176.7536667
176.7728333
176.791
176.8281667
176.8465
176.8635
176.88
176.8963333
176.9123333
176.928
176.964
176.982
177.0366667
177.054
177.0711667
177.0885
177.106
177.1218333
177.1545
177.1715
177.2053333
177.223
177.2401667
177.2578333
177.2756667
177.2935
177.3101667
177.344
177.3605
177.3753333
177.4058333
177.422
177.4556667
177.4751667
177.4933333
177.5306667
177.5483333
177.5815
177.5986667
177.6155
177.6516667
177.6693333
177.6856667
177.7026667
177.7193333
177.7348333
177.7663333
177.7818333
177.7966667
177.83
177.8483333
177.867
177.8858333
177.904
177.9213333
177.939
177.9563333
177.9733333
178.0456667
178.0641667
178.083
178.101
178.118
178.1353333
178.1526667
178.169
178.1841667
178.1985
178.2125
178.227
178.2433333
178.2641667
178.2875
178.3093333
178.3306667
178.3518333
178.372
178.391
178.41
178.4285
178.4456667
178.4625
178.4793333
178.4958333
178.5116667
178.5283333
178.5463333
178.5641667
178.581
178.5988333
178.616
178.6333333
178.6508333
178.6675
178.6828333
178.6983333
178.7141667
178.731
178.7475
178.7645
178.7825
178.8003333
178.8173333
178.8345
178.8521667
178.8695
178.8861667
178.9028333
178.9198333
178.9366667
178.9541667
178.9716667
178.9885
179.0246667
179.0426667
179.0591667
179.0753333
179.0913333
179.1075
179.1436667
179.163
179.182
179.2016667
179.2208333
179.2388333
179.2563333
179.2733333
179.289
179.3048333
179.3211667
179.3381667
179.3545
179.3715
179.3888333
179.4056667
179.4221667
179.4381667
179.454
179.469
179.5035
179.5216667
179.539
179.557
179.5748333
179.5918333
179.6093333
179.6273333
179.645
179.6793333
179.6971667
179.7146667
179.7506667
179.7685
179.7856667
179.8033333
179.8208333
179.8373333
179.8523333
179.8675
179.8836667
179.9013333
179.9191667
179.9376667
179.9556667
179.9738333
179.9918333
180.0258333
180.0436667
180.0611667
180.0781667
180.096
180.1138333
180.1306667
180.1475
180.1641667
180.1806667
180.1976667
180.215
180.232
180.249
180.265
180.2803333
180.2961667
180.3128333
180.3308333
180.3488333
180.3683333
180.3873333
180.4056667
180.424
180.4423333
180.4593333
180.4758333
180.492
180.5085
180.5245
180.5411667
180.5588333
180.5765
180.5941667
180.6125
180.6308333
180.6486667
180.6658333
180.684
180.7016667
180.7178333
180.734
180.75
180.7671667
180.7841667
180.8023333
180.8211667
180.8395
180.857
180.8756667
180.8941667
180.9113333
180.9456667
180.9635
180.9808333
180.998
181.0333333
181.0501667
181.0676667
181.0851667
181.102
181.119
181.1361667
181.1528333
181.1846667
181.2001667
181.2153333
181.232
181.2498333
181.2676667
181.2853333
181.3026667
181.3195
181.3363333
181.3533333
181.3695
181.4025
181.4198333
181.4363333
181.4531667
181.4706667
181.4878333
181.5045
181.522
181.5398333
181.557
181.5738333
181.5911667
181.6088333
181.626
181.66
181.677
181.6921667
181.722
181.7376667
181.7558333
181.7753333
181.794
181.8131667
181.8325
181.8506667
181.8686667
181.8871667
181.9051667
181.9221667
181.9395
181.9568333
181.9735
181.99
182.0238333
182.0401667
182.0561667
182.0725
182.0895
182.1055
182.1398333
182.1568333
182.1731667
182.19
182.2066667
182.222
182.2515
182.267
182.2826667
182.3195
182.3393333
182.3583333
182.3785
182.3978333
182.4356667
182.4538333
182.4715
182.4888333
182.505
182.538
182.5551667
182.5713333
182.6051667
182.6221667
182.6386667
182.6555
182.6723333
182.6881667
182.7236667
182.7415
182.759
182.7771667
182.7958333
182.8136667
182.849
182.8665
182.8828333
182.899
182.916
182.9333333
182.95
182.9673333
182.9851667
183.0543333
183.071
183.1055
183.1228333
183.1391667
183.1708333
183.1861667
183.2356667
183.253
183.31
183.3288333
183.3475
183.3646667
183.3991667
183.4166667
183.4671667
183.4833333
183.5176667
183.535
183.5846667
183.5996667
183.648
183.7035
183.7211667
183.758
183.7751667
183.8101667
183.8276667
183.8608333
183.877
183.8925
183.9435
183.961
184.0278333
184.0603333
184.0773333
184.0946667
184.1131667
184.1321667
184.1505
184.1865
184.2043333
184.2211667
184.239
184.257
184.2745
184.3105
184.3291667
184.3466667
184.3818333
184.399
184.4153333
184.4323333
184.449
184.4648333
184.4806667
184.515
184.5333333
184.5515
184.571
184.59
184.6095
184.6293333
184.648
184.6848333
184.7028333
184.7193333
184.753
184.77
184.7861667
184.8025
184.8193333
184.8365
184.8533333
184.8703333
184.8876667
184.9048333
184.9208333
184.937
184.9526667
184.9685
184.9838333
185.054
185.0723333
185.0908333
185.1085
185.1265
185.1455
185.1625
185.1956667
185.2126667
185.2288333
185.263
185.2808333
185.2978333
185.3333333
185.3506667
185.3668333
185.3836667
185.4003333
185.4161667
185.4306667
185.446
185.4631667
185.4816667
185.4998333
185.5181667
185.5366667
185.5541667
185.5888333
185.606
185.6218333
185.6386667
185.6563333
185.6731667
185.7061667
185.7223333
185.738
185.7721667
185.7903333
185.8078333
185.8445
185.8626667
185.88
185.8968333
185.9128333
185.9275
185.9583333
185.9753333
185.9915
186.047
186.0843333
186.1026667
186.1196667
186.1368333
186.1536667
186.17
186.1855
186.2021667
186.2201667
186.2381667
186.2551667
186.273
186.291
186.3081667
186.3253333
186.3425
186.3586667
186.3906667
186.407
186.4216667
186.4535
186.4706667
186.4896667
186.5093333
186.5273333
186.5451667
186.5636667
186.582
186.599
186.6168333
186.6351667
186.6531667
186.6705
186.6881667
186.706
186.7236667
186.741
186.7583333
186.7758333
186.7926667
186.8093333
186.8275
186.8466667
186.865
186.8836667
186.9018333
186.9183333
186.9335
186.9493333
186.967
186.9846667
187.0405
187.059
187.095
187.112
187.1453333
187.163
187.1795
187.2143333
187.2311667
187.2485
187.2656667
187.2821667
187.2993333
187.3171667
187.3338333
187.3665
187.3836667
187.3998333
187.43
187.4458333
187.4616667
187.498
187.5173333
187.5353333
187.554
187.5728333
187.5906667
187.626
187.6435
187.6601667
187.6775
187.695
187.712
187.745
187.762
187.7783333
187.8138333
187.8318333
187.8488333
187.8838333
187.9018333
187.9191667
187.9531667
187.9708333
